5.3766714e-02   
1.8366187e-01  
-2.2533794e-01   
8.7037452e-02   
3.2970018e-02  
-1.2940196e-01  
-4.1718962e-02   
3.6176061e-02   
3.6002668e-01   
2.7940406e-01  
-1.3225496e-01   
3.0649945e-01   
7.5820904e-02  
-2.7516328e-03   
7.5301518e-02  
-1.6396004e-02  
-8.0404600e-03   
1.5361711e-01   
1.4582417e-01   
1.4691334e-01   
7.2617182e-02  
-1.1500785e-01   
7.7738081e-02   
1.6931112e-01   
5.5450339e-02   
1.1030364e-01   
7.9796222e-02  
-2.2963010e-02   
3.7041603e-02  
-7.0800451e-02   
9.7040766e-02  
-1.0623243e-01  
-8.9714878e-02  
-5.5080110e-02  
-2.5986107e-01   
1.8710297e-01   
8.4481587e-02  
-1.4832707e-02   
2.0638757e-01  
-9.3096334e-02   
7.6528655e-02   
7.1305786e-02   
1.3606876e-01   
1.4413153e-01   
3.5055273e-02   
1.2723573e-01   
1.2245055e-01   
2.1040677e-01   
2.6566020e-01   
2.7595855e-01   
8.7363531e-02   
1.9016231e-01   
6.9712292e-02   
8.8471514e-02   
2.0783425e-01   
3.7047980e-01   
1.4894777e-01   
2.7174983e-01   
2.2075110e-01   
3.6374275e-01   
1.5179830e-01   
2.7265807e-01   
3.3335261e-01   
3.9685852e-01   
4.4991628e-01   
3.1278580e-01   
1.6373125e-01   
2.4735768e-01   
2.2412729e-01   
5.7402877e-01   
2.6849020e-01   
3.9592541e-01   
2.9294322e-01   
3.9211345e-01   
2.1783482e-01   
1.4516019e-01   
1.3421683e-01   
3.1634115e-01   
2.4085158e-01   
2.3005109e-01   
3.8265479e-01   
2.6094955e-01   
2.4263956e-01   
3.7269570e-01   
1.2454653e-01   
2.6572291e-01   
2.7063662e-01   
1.5382363e-01   
1.9082949e-01   
4.3745428e-02   
3.6601882e-02   
1.5295197e-01   
2.0575724e-01   
3.8314830e-01   
4.8977447e-02   
1.2546695e-01   
8.9551748e-02  
-1.0443376e-01   
3.6039253e-02  
-1.0846468e-01   
1.4610810e-01  
-3.5665325e-02   
5.4214505e-02  
-1.9180332e-02   
5.6691979e-02  
-4.2625418e-02   
5.7471108e-02   
8.2226659e-02   
1.7929489e-01  
-1.1490467e-02  
-2.0609787e-01  
-7.6405448e-02   
1.4282863e-01  
-1.0003056e-01   
1.0309612e-01   
1.9221487e-02   
1.5030194e-01  
-1.8964195e-01  
-1.3506005e-02  
-1.1470496e-01   
2.9669616e-01   
8.8233017e-02   
1.4342410e-01  
-1.0047536e-01  
-4.1703120e-02  
-2.2272733e-02   
1.1463244e-01  
-2.3181445e-02   
7.4575664e-02  
-2.0094434e-01  
-3.1331942e-02  
-7.8489824e-02  
-1.5402110e-01   
5.4297834e-02   
3.1514545e-02   
6.4798968e-03  
-1.3042012e-01   
1.1551268e-01   
3.7597160e-02  
-2.7511614e-02   
4.4997383e-03  
-2.4173014e-02  
-1.7317894e-01  
-2.6907028e-02  
-8.1662812e-02  
-9.6631021e-02  
-1.1453479e-01  
-5.2434561e-02  
-1.9952665e-01   
9.6975632e-02   
5.2374470e-02  
-1.8185552e-03  
-3.4771086e-03  
-1.0382766e-01   
5.3845929e-02  
-8.5355646e-02  
-1.6749821e-01   
1.5082080e-02  
-1.6654490e-01  
-2.2698200e-01  
-2.2146576e-01  
-3.0089432e-01  
-3.5212582e-01  
-1.1524325e-02  
-1.2258583e-01  
-2.0783840e-01  
-3.1476008e-01  
-2.2605137e-01  
-1.0761430e-01   
3.8724396e-02  
-1.2407398e-01  
-1.7431657e-01  
-3.6695909e-02   
1.9110858e-01   
2.4643653e-01   
3.0201279e-01   
2.9336006e-01   
3.7430111e-01   
3.5786058e-01   
5.4122172e-01   
3.6839379e-01   
5.9960987e-01   
5.1877965e-01   
6.1970557e-01   
7.5801627e-01   
8.5619068e-01   
6.9006143e-01   
9.7743484e-01   
9.6692696e-01   
9.4366977e-01   
9.8047788e-01   
9.0468004e-01   
8.2257059e-01   
7.8162660e-01   
7.1089175e-01   
7.1480967e-01   
7.1134174e-01   
5.3177619e-01   
3.9055409e-01   
4.0048514e-01   
2.8272951e-01   
8.7870703e-02   
2.1221032e-01   
7.4435005e-02  
-1.6313014e-02  
-5.1865197e-02  
-1.5080852e-01  
-3.4465705e-01  
-3.4030156e-01  
-4.1223258e-01  
-5.2438758e-01  
-3.7653540e-01  
-7.0587802e-01  
-7.4024591e-01  
-8.3662418e-01  
-9.5640428e-01  
-7.8829175e-01  
-7.2655957e-01  
-4.7623004e-01  
-5.8422451e-01  
-5.9582812e-01  
-2.5914580e-01  
-2.2610836e-01  
-3.0262366e-01  
-3.6036173e-01  
-1.8429329e-01  
-8.5509358e-02   
2.7606825e-02  
-2.5934116e-02   
4.4706689e-02   
3.9736168e-02  
-1.2433889e-01  
-9.3884847e-02  
-7.3017116e-02  
-4.9506012e-02  
-3.0599559e-02   
2.8871447e-03  
-3.0109524e-01  
-4.3696726e-02   
1.2643183e-01  
-1.0430090e-01   
9.5924302e-02   
3.7765834e-02   
1.5406862e-05   
2.1343449e-02  
-1.5322512e-01  
-4.9912179e-03   
1.6403961e-01   
1.3662005e-02   
8.1468383e-03  
-6.9225185e-02   
1.2926018e-03   
2.7790925e-02   
4.7377228e-02  
-3.2360152e-02  
-1.8542488e-02   
2.0765431e-01  
-2.2036793e-01   
2.2859429e-01   
3.9588337e-02   
1.0602030e-01  
-1.6021998e-01  
-5.2624743e-02  
-2.1245454e-02   
4.9014780e-02  
-1.6009461e-01   
5.4271142e-02  
-1.1399476e-01   
1.4091212e-02   
7.2890045e-02   
4.0542702e-02   
1.1628230e-01   
1.0880891e-01  
-5.6707322e-02   
3.4271316e-02  
-8.5689831e-02  
-1.2324865e-01   
1.0159504e-01   
9.2996815e-03   
3.9850540e-03   
1.0077192e-01   
6.9299813e-02   
4.5043810e-02   
1.3523106e-01   
1.0336714e-01   
3.4546765e-02  
-5.8283422e-02  
-5.4220427e-02   
1.3032737e-01  
-1.4988360e-01   
9.0354903e-03  
-1.8322078e-01   
1.1389598e-01   
9.8200061e-02   
1.2326888e-02   
5.3092074e-03  
-2.3605321e-01   
7.0874659e-02  
-2.0630382e-01  
-2.1880611e-01   
2.1297545e-02  
-8.1361676e-02   
5.4817734e-02   
8.1548701e-02   
9.9806424e-02  
-5.4900494e-02   
5.9335430e-02   
2.4643251e-02   
9.7369165e-02   
6.8560122e-02   
1.0491551e-01   
2.1151252e-03   
7.7101531e-04   
1.1645075e-01  
-1.9650989e-01  
-3.4420733e-02  
-1.1083929e-01  
-2.1856075e-02   
8.1452581e-02   
9.9339619e-02  
-8.4545212e-02  
-2.5806029e-02   
3.9355259e-02   
8.1824328e-04   
6.4538246e-02   
7.8701294e-02  
-4.9936147e-02   
2.9728792e-02  
-1.6144583e-01   
1.7065161e-01  
-2.4418292e-03  
-5.5565941e-02   
4.3776397e-02  
-6.9342011e-02   
7.5788723e-02   
2.6159794e-02   
3.0435597e-01   
2.0477645e-01  
-1.5440693e-01   
1.4376623e-01  
-3.5828446e-02   
8.2831633e-02   
1.2912937e-01   
1.9181417e-01   
9.4087884e-02   
2.8337440e-01   
8.2002483e-02   
1.6719922e-01   
2.0527323e-01   
1.5167049e-01   
2.3559871e-01   
1.8417656e-01   
7.7792436e-02  
-1.9978471e-02   
3.5076997e-01   
1.0880947e-01   
1.8395026e-01   
2.3428280e-01   
1.8497399e-01   
7.8789862e-02   
1.1813922e-01   
1.4806987e-01   
3.0410290e-01   
6.5773676e-02   
2.2597028e-01   
1.7401394e-01   
1.1541381e-01   
2.8750733e-02   
1.0168210e-01   
1.1707536e-01  
-2.5546928e-02   
1.3625899e-01   
3.0459633e-02   
9.8913092e-02   
1.3760668e-01   
9.1681259e-03   
6.6456086e-02   
1.2593619e-01  
-9.7007811e-02   
1.8582388e-01   
3.2032060e-01   
1.6946273e-01   
3.7593666e-02   
1.0768132e-01  
-4.3131231e-02   
2.4390198e-01   
1.4583407e-01   
1.2614640e-01  
-4.4527417e-02   
7.0703113e-02  
-2.1473038e-02  
-1.1383610e-03  
-3.1348220e-02  
-8.1272400e-02  
-7.3925406e-02  
-4.8476834e-03  
-1.5455146e-01   
7.5287903e-02   
1.9409136e-03   
8.2829673e-02   
3.9071402e-02   
6.0728141e-02  
-1.3781977e-01  
-9.2341209e-02  
-3.5821374e-02   
1.9036884e-02   
1.2013757e-01  
-2.2539484e-02   
1.3180479e-01   
5.2385096e-02   
1.2144719e-01   
1.5923117e-02  
-6.3260285e-02  
-1.4652570e-01   
1.6356002e-02   
8.1855137e-02  
-2.9258813e-02  
-5.4078642e-02  
-3.0864182e-02  
-1.0965933e-01  
-4.9300982e-02  
-1.8073936e-02   
4.5841106e-03  
-6.3783120e-03   
6.1133519e-02   
1.0931769e-02   
1.8140155e-01   
3.1202383e-02   
1.8044938e-01  
-7.2312148e-02   
5.2654704e-02  
-2.6025086e-02   
6.0014251e-02   
5.9393080e-02  
-2.1860216e-01  
-1.3270431e-01  
-1.4410136e-01   
4.0184450e-02   
1.4702013e-01  
-3.2681423e-02   
8.1232300e-02   
5.4554010e-02  
-1.0516323e-01   
3.9746700e-02  
-7.5189474e-02   
1.5162669e-01  
-3.2566509e-03   
1.6359997e-01  
-4.2505849e-02   
5.8943337e-02  
-6.2791226e-03  
-2.0219589e-01  
-9.8213153e-02   
6.1251130e-02  
-5.4886130e-03  
-1.1187320e-01  
-6.2637854e-02   
2.4951774e-02  
-9.9301901e-02   
9.7495022e-02  
-6.4070951e-02   
1.8088626e-01  
-1.0798663e-01   
1.9918944e-02  
-1.5210266e-01  
-7.2363113e-02  
-5.9325032e-02   
4.0133634e-02   
9.4213332e-02   
3.0048597e-02  
-3.7307066e-02   
8.1548851e-02   
7.9888699e-02   
1.2020528e-02   
5.7124763e-02   
4.1279601e-02  
-9.8696188e-02   
7.5956833e-02  
-6.5720130e-02  
-6.0391848e-02   
1.7694682e-02  
-3.0750347e-02  
-1.3182035e-02   
5.9535767e-02   
1.0468328e-01  
-1.9795863e-02   
3.2767816e-02  
-2.3830150e-02   
2.2959689e-02   
4.3999790e-02  
-6.1686593e-02   
2.7483679e-02   
6.0110203e-02   
9.2307951e-03   
1.7298414e-01  
-6.0855744e-02  
-7.3705977e-02  
-1.7498793e-01   
9.1048258e-02   
8.6708255e-02  
-7.9892839e-03   
8.9847599e-02   
1.8370342e-02   
2.9079013e-02   
1.1294472e-02   
4.3995219e-02   
1.0166244e-02   
2.7873352e-01  
-1.1666650e-01  
-1.8542991e-01  
-1.1406811e-01  
-1.0933435e-01  
-4.3360930e-02  
-1.6573614e-02  
-2.1306609e-02   
5.4953564e-02   
4.0020114e-02   
7.6489766e-02   
1.7946583e-01   
1.2421987e-01  
-1.2613862e-01  
-2.3043509e-01   
9.2926881e-02  
-1.8055676e-01   
9.9561723e-03   
7.1018031e-03   
2.2654404e-01  
-2.8208240e-03  
-4.6358332e-02   
2.8228316e-02   
2.9501207e-02   
1.2198616e-02  
-5.5390582e-02  
-1.1651850e-01   
3.7664251e-02  
-1.2799933e-01  
-9.6657472e-02   
1.3995592e-01  
-3.4782610e-02  
-6.6510896e-03   
9.7636689e-02  
-2.2083271e-02   
1.1113777e-01  
-2.6032021e-02   
1.1845235e-01   
8.8803218e-02   
1.3265842e-02  
-4.3304789e-02  
-5.2348297e-02   
3.3653244e-02   
2.5543581e-02   
3.7187876e-02   
1.8510742e-01   
6.5680776e-02   
2.1851597e-01   
5.9683662e-02   
2.1879984e-01   
7.8015808e-02   
1.5659623e-01   
2.4470982e-01   
1.1493640e-01   
1.2120417e-01   
3.7406787e-01   
2.7752575e-01   
1.4792361e-01   
2.6471566e-01   
1.7251155e-01   
2.8780527e-01   
3.6749927e-01   
7.4160387e-02   
3.4619485e-01   
3.9780391e-01   
2.6545186e-01   
4.4402799e-01   
2.9363866e-01   
1.6308553e-01   
7.6145666e-02   
2.7085198e-01   
3.8424461e-01   
3.5332864e-01   
3.7164650e-01   
2.8127449e-01   
3.4445057e-01   
1.5725115e-01   
2.3617607e-01   
2.2137310e-01   
3.4629263e-01   
2.8397108e-01   
1.6090148e-01   
2.6656927e-01   
1.8960804e-01   
1.8298652e-01   
3.2713872e-01   
2.4313306e-01   
2.6269474e-01   
3.0232278e-01   
2.2301890e-01   
2.5114592e-01   
2.5542423e-01   
2.9525601e-01   
2.1684854e-01   
3.0155309e-01   
1.5365801e-01   
1.3767756e-01   
3.0366530e-01   
7.3628004e-02   
1.1538102e-01   
1.9872056e-01   
1.1278206e-01   
2.2936187e-01   
1.8334802e-01   
1.0016024e-01  
-1.5699309e-02   
1.0980749e-01  
-9.4056894e-02   
5.9720028e-02   
1.0718378e-01   
3.8711408e-02   
9.6442293e-02   
2.1217797e-01   
1.0049936e-01   
3.4613631e-02   
7.1903807e-02   
5.0101962e-02  
-1.2410315e-01  
-3.4456155e-02   
1.2946952e-01   
2.4580864e-03   
6.4874605e-02  
-9.4201960e-02   
1.2715491e-02   
6.6108782e-02  
-1.3025614e-01   
4.0470391e-02  
-1.2657424e-02  
-8.8610809e-02   
1.4051188e-03  
-1.8465624e-01  
-2.0800770e-01  
-1.1308659e-01  
-9.4631704e-02  
-1.1306594e-01  
-1.6848972e-01   
3.2691637e-02  
-1.5573377e-01   
1.4522253e-02   
8.2022806e-02   
2.9092300e-03   
1.2258555e-02  
-3.5052257e-02  
-1.4568839e-01  
-1.9868696e-03   
9.8293280e-02   
1.7585102e-01  
-4.1178325e-02  
-1.6107420e-01   
1.8108589e-02   
3.8916200e-02  
-2.1589667e-02  
-1.1397008e-01   
2.0317018e-01  
-2.3539966e-01  
-5.0628745e-02  
-1.3197833e-01  
-6.3612825e-02   
7.7738425e-03  
-3.4217801e-02  
-1.4310741e-01  
-1.8344845e-02  
-5.7817105e-02  
-7.9329708e-02  
-2.1064226e-01  
-8.7232319e-02  
-1.5003099e-01   
1.0764253e-02  
-1.5777833e-01  
-1.7244343e-01  
-2.3329403e-01  
-3.1788684e-01  
-1.7662669e-01  
-1.6574008e-01  
-9.6814102e-02   
6.4640323e-02   
2.9923370e-03   
1.8702507e-02   
1.1682472e-01   
1.9121250e-01   
2.9777829e-01   
2.1112493e-01   
3.8766395e-01   
4.1327789e-01   
5.8745810e-01   
4.8324618e-01   
5.4065905e-01   
4.8651500e-01   
5.1466800e-01   
7.3378877e-01   
7.2733271e-01   
8.5219970e-01   
7.6210283e-01   
1.0917639e+00   
9.6267939e-01   
1.1047033e+00   
9.0374866e-01   
8.3663116e-01   
8.4832722e-01   
7.6133839e-01   
5.2017789e-01   
4.0537477e-01   
3.7529797e-01   
2.6994809e-01   
3.4392316e-01   
2.2328169e-01   
1.5404638e-01  
-1.8808177e-02   
1.2168556e-01   
1.4110603e-02  
-1.1235208e-01  
-7.4831141e-02  
-3.3790642e-01  
-2.8259777e-01  
-3.6278300e-01  
-4.3626100e-01  
-6.1767049e-01  
-5.8562106e-01  
-7.4335257e-01  
-8.5506834e-01  
-9.5930987e-01  
-6.6528623e-01  
-7.8374696e-01  
-6.4652867e-01  
-6.8018724e-01  
-5.1911946e-01  
-7.4269531e-01  
-4.5827219e-01  
-4.2230463e-01  
-3.1119084e-01  
-1.6115723e-01  
-1.0245003e-01   
1.9443978e-01  
-5.6995073e-02  
-2.4638730e-02  
-1.5638480e-01  
-4.7009271e-02  
-1.3288642e-01   
4.1233961e-03   
8.6584419e-02   
4.1883338e-02  
-6.8421781e-02  
-1.6123180e-01   
1.4800606e-01   
2.0719126e-01   
1.4419296e-02  
-9.6438675e-02   
1.2251088e-01  
-5.6349639e-02  
-4.3882704e-02   
9.1918219e-02  
-1.3505925e-01  
-1.9203042e-01   
4.5895598e-02   
4.4083277e-02   
1.3705942e-02   
5.4042414e-02   
1.1278028e-01   
1.0178325e-01  
-5.1936235e-02   
8.6100178e-02   
2.2609957e-02  
-4.5086788e-02  
-1.1368086e-01   
7.0529060e-02  
-2.9348045e-02   
1.0839917e-02  
-7.2916037e-02  
-1.4849049e-01   
2.3901847e-02   
7.1154770e-04   
1.2701050e-01   
8.7460365e-02   
1.1280266e-01  
-6.7233219e-02  
-8.5795945e-02  
-1.1888972e-01   
5.7999265e-02   
2.8729156e-01   
8.1322904e-02  
-6.8558461e-02   
9.2593574e-02  
-1.0372058e-01  
-1.3315231e-01   
8.1221177e-02  
-6.8131358e-02   
4.1440031e-02   
1.5067721e-01   
5.0318405e-02   
1.0335422e-01  
-1.5000978e-01   
7.6906313e-02   
2.2478516e-01   
6.5231127e-02  
-1.4278828e-01  
-8.8325955e-03  
-3.8332589e-02   
5.0148573e-02   
5.3231969e-02   
5.2759935e-02  
-2.3985146e-02  
-4.7352026e-02  
-4.6201472e-02   
9.8293759e-02  
-1.7217888e-01  
-7.4261425e-03   
4.0524243e-02  
-5.1608430e-02   
6.1573649e-02   
6.9012043e-03  
-7.9614711e-02   
3.0534021e-02  
-1.2238372e-02  
-2.6225100e-02  
-5.6187857e-02   
2.1271211e-02  
-1.6930401e-01  
-2.4342151e-02  
-3.8681402e-02  
-7.5334192e-02   
8.1307767e-02  
-5.7206969e-02   
7.0465715e-02   
1.1416874e-01   
1.0798621e-03   
4.4729085e-02   
8.5252692e-02   
1.7554970e-02   
8.4091595e-02  
-9.1900094e-02   
1.4975058e-01  
-5.5896259e-02  
-1.3547177e-01   
1.9021348e-01   
4.9842758e-02   
1.0535936e-01   
2.8493209e-02  
-3.2887474e-02  
-2.3377618e-01   
1.4050238e-01   
5.3557841e-02   
6.6843813e-02   
1.3149045e-01  
-4.6653124e-02   
2.6689008e-02   
2.1871813e-01   
1.6812361e-01  
-1.5439166e-02  
-1.0328565e-01   
6.4267947e-02   
1.4714404e-01   
2.2433389e-01   
1.4382056e-01   
2.6568645e-02   
1.7376741e-01   
3.0269949e-02   
5.5758589e-02   
9.0833553e-02   
3.7619499e-02   
1.3781416e-01   
7.9267476e-02   
1.4504568e-01   
1.3172395e-01   
1.3263577e-01   
1.1890858e-01   
2.8824038e-01   
2.2158939e-01   
1.6211427e-01   
5.1605720e-03  
-1.5076891e-02  
-5.3323615e-02   
3.9931939e-01   
2.3168549e-01   
1.5579429e-01   
2.8320343e-02   
6.7561404e-03   
1.7180472e-01   
2.6919736e-01  
-6.0997215e-02   
5.9045605e-02   
9.1204325e-02  
-1.0391800e-01   
1.7505448e-01   
4.5112212e-02   
2.7344438e-01   
3.8784611e-02   
1.1444088e-01  
-4.5071951e-02   
2.3326788e-03  
-5.6405038e-02   
9.5372966e-02   
1.8194758e-01  
-1.1952358e-02   
8.6697548e-02  
-1.1728048e-02   
4.4567162e-02   
1.4962963e-01   
3.7681053e-02  
-8.2383378e-02  
-6.8761171e-02  
-8.4538036e-04  
-3.8318805e-03  
-7.2053676e-02   
3.1787156e-02   
1.3956649e-01  
-1.3010391e-02  
-9.1575700e-03  
-2.0965986e-01  
-6.7766080e-02  
-1.3044913e-01  
-3.0552440e-02   
5.9822558e-02   
1.5878375e-01   
1.8549916e-01  
-6.8458117e-03  
-2.7984106e-02   
8.4980038e-02   
5.1437226e-02   
7.8139321e-02   
7.8635007e-02  
-1.4803052e-01   
5.4036396e-02  
-9.1539022e-03  
-7.6025238e-02  
-6.9359544e-02   
1.2814578e-01  
-8.0973761e-02  
-1.2368184e-01   
2.1468645e-02   
2.0107718e-01   
2.5554433e-03   
3.0829944e-02  
-9.3824721e-02   
1.6742160e-01   
1.2498817e-02   
5.3010126e-02  
-9.5206822e-02   
8.5404282e-02   
3.8914573e-02  
-1.1560011e-01   
3.9740127e-03  
-4.5059860e-02   
1.0924794e-02  
-2.5055284e-02  
-1.8990165e-02  
-1.0329135e-01  
-3.2329192e-02   
7.6652685e-02   
1.7446732e-01  
-1.1605199e-01   
2.3774119e-01   
1.5260780e-01   
1.6850750e-02  
-3.0120653e-02  
-6.9865427e-02   
8.3277058e-02  
-6.9460525e-02  
-4.6188299e-02   
8.8361714e-02   
4.3594418e-02   
8.9674736e-02   
5.0473203e-02  
-4.0089714e-02  
-5.1384801e-02   
7.9636760e-02  
-6.7119016e-02   
1.1866590e-01   
7.9070197e-02   
2.8772149e-02   
3.2261146e-04   
3.6561719e-02   
3.5266778e-01  
-1.1243666e-02  
-1.5565939e-01   
1.9151023e-01   
6.0984605e-02  
-6.4791162e-02   
2.6173349e-01   
5.5095042e-02   
2.9420368e-02  
-7.7784380e-02  
-1.0649301e-01  
-1.7684140e-01  
-4.2291954e-02  
-1.0531024e-01   
6.4775524e-02  
-3.1762819e-02   
1.7689916e-01   
1.5105824e-01   
1.6401032e-02  
-2.8276371e-02   
1.1521658e-01  
-1.1465076e-01   
6.7369870e-02  
-6.6911300e-02  
-4.0032270e-02  
-6.7180243e-02   
5.7562902e-02  
-7.7809352e-02  
-1.0635612e-01   
5.5297830e-02  
-4.2342884e-02   
3.6158716e-02  
-3.5188924e-02   
2.6954071e-02  
-2.5644494e-01   
4.6586413e-02   
1.8535609e-01   
1.0392893e-01   
9.1089658e-02  
-2.3973129e-02   
1.8099808e-02   
2.4424955e-02   
9.6392885e-03  
-8.3046850e-02  
-3.5225219e-02  
-1.7477504e-02  
-4.8065342e-02   
8.3957045e-02   
2.5438168e-01  
-1.3151330e-01   
1.3927520e-02  
-1.4287105e-01   
1.3189106e-01   
1.4290476e-01  
-1.6406731e-01   
1.9682881e-01  
-1.0573611e-01   
2.5689005e-02   
1.1317340e-01   
1.8272730e-02   
2.3339381e-01   
2.7935639e-01   
1.8205747e-02  
-1.8605927e-01  
-3.1578578e-02  
-7.9616906e-02  
-7.1007868e-02  
-1.0702864e-01   
1.3833105e-02   
2.1695055e-01  
-6.5023777e-02  
-2.1217230e-02   
1.2375521e-01   
1.2866322e-01   
5.6208555e-02   
1.1052948e-01   
9.5273805e-02  
-2.9701212e-02   
6.0061470e-02  
-4.0432929e-03  
-5.5419501e-02   
1.0673949e-01   
5.8707893e-02   
4.1948070e-02   
9.8530462e-02   
1.7682478e-01   
1.2604636e-01   
1.1490563e-01   
1.3212658e-01   
1.1796770e-01   
4.4096641e-02   
2.0891903e-01   
2.7982914e-01   
9.4226181e-02   
3.4910947e-01   
1.4740647e-01   
1.4935378e-01   
9.2666339e-02   
1.1189031e-01   
1.0452412e-01   
2.4390972e-01   
3.7691940e-01   
2.7866139e-01   
3.2003218e-01   
3.7749420e-01   
2.0537923e-03   
2.4394880e-01   
3.0470385e-01   
3.4982528e-01   
1.5631234e-01   
1.9490820e-01   
3.8326103e-01   
3.0123314e-01   
3.7689686e-01   
2.3422098e-01   
1.7560281e-01   
4.0617042e-01   
4.4044844e-01   
4.7539079e-01   
1.5003344e-01   
1.6063450e-01   
1.3800243e-01   
2.7228811e-01   
2.0597103e-01   
3.9000458e-01   
1.0414978e-01   
6.6488853e-02   
2.5232158e-01   
3.4215149e-01   
1.3364348e-01   
7.8429486e-02   
1.8112733e-01   
2.3483138e-02   
1.7992958e-01   
2.5210121e-01   
1.8210366e-01  
-3.9527330e-02   
8.8782316e-02   
1.0332861e-01   
3.0595739e-01   
2.0715169e-01   
1.0102578e-01   
2.2873740e-01  
-1.5605055e-02   
4.5109187e-02   
2.1225932e-01   
2.1230884e-01   
1.2617548e-01   
9.3280449e-02  
-2.3340053e-02   
1.0082986e-01  
-6.5408259e-02   
6.5926649e-02   
3.6474485e-02   
1.2203674e-01  
-3.4664898e-02   
7.1351646e-02   
8.6871235e-02  
-8.2468515e-02   
2.2809451e-02   
1.6672613e-01   
1.8060478e-02  
-2.4230216e-02   
5.2114008e-02  
-2.1246266e-02   
5.0393948e-02  
-7.5811553e-03   
3.8783045e-03   
5.1605840e-02   
1.4157421e-01   
5.0345894e-02   
1.6981257e-01  
-1.9804622e-01  
-4.0319933e-02   
2.8020838e-02  
-7.9280008e-02  
-1.2354246e-01   
6.5572336e-02   
6.4954749e-02   
3.2438484e-02   
4.2847751e-02  
-8.3924376e-02  
-4.6821159e-02  
-7.9037329e-03  
-6.6203695e-02   
3.5583077e-02   
2.3873323e-01  
-4.6196543e-02   
6.6587120e-02  
-1.0178440e-01   
1.3542930e-01  
-9.5624426e-02   
2.1976940e-02  
-6.0938186e-02   
5.1938484e-02   
1.6881069e-03  
-4.0304028e-03   
2.9509348e-01  
-6.3004619e-02  
-2.8699239e-02   
2.2027995e-01  
-1.8670297e-01  
-4.0745323e-02  
-2.2770234e-01  
-4.1003838e-02  
-1.3532611e-01  
-1.2687791e-01  
-2.4398781e-01  
-2.1559383e-01  
-1.1687295e-01  
-5.1564575e-01  
-4.0192099e-01  
-1.4750135e-01  
-2.0498145e-01  
-1.1959572e-01  
-1.9010910e-01  
-8.1356978e-02   
1.8251989e-02   
3.5634003e-02   
7.1108994e-02   
1.6511650e-01   
1.6257822e-01   
4.4057690e-01   
2.5708873e-01   
5.8727015e-01   
4.1757590e-01   
3.5938916e-01   
4.9223873e-01   
6.9710068e-01   
7.5878719e-01   
7.1876067e-01   
7.8102165e-01   
8.6511585e-01   
7.0546478e-01   
8.4274167e-01   
7.6744139e-01   
9.5508969e-01   
1.0213681e+00   
9.2462550e-01   
1.0081049e+00   
7.2243548e-01   
4.1655431e-01   
7.2758400e-01   
6.1331282e-01   
3.5326233e-01   
3.6022755e-01   
3.4235193e-01   
2.2931817e-01   
1.8692483e-01   
3.2457258e-02  
-3.3712879e-02  
-9.4580968e-02  
-2.5591475e-01  
-1.0821241e-01  
-3.2343463e-01  
-3.2897903e-01  
-5.5667980e-01  
-6.5226929e-01  
-6.2740181e-01  
-7.1714159e-01  
-6.4594135e-01  
-7.7837668e-01  
-7.1501635e-01  
-8.4364648e-01  
-7.2600667e-01  
-5.3911690e-01  
-5.2419458e-01  
-2.9048273e-01  
-2.1546089e-01  
-3.3774079e-01  
-1.2223220e-01  
-2.8551978e-04  
-3.7816732e-02   
1.6233825e-01   
1.0642558e-01   
2.1775022e-02   
8.8227067e-02   
2.0169697e-02  
-4.0577971e-02   
3.6939367e-02   
4.8980095e-03  
-3.5005125e-02   
1.7874220e-01   
2.3949796e-02   
2.7504250e-01  
-2.7429551e-02   
5.8798792e-02   
1.6081355e-01   
2.7565675e-01   
3.3272411e-02  
-7.5927616e-02   
8.3618504e-02  
-1.2852754e-01  
-2.3739597e-02   
3.1013920e-02   
1.5296483e-01   
1.4790588e-01   
1.6178352e-03   
9.6949355e-02  
-2.7389569e-02   
7.1033210e-02   
1.9663236e-01   
2.0961181e-02  
-2.4586177e-02  
-4.4353760e-02   
7.7479105e-02   
1.3974309e-01   
2.1876446e-01   
1.1783292e-02   
2.2864554e-02  
-5.6527463e-02   
1.6812461e-01  
-4.3716329e-04  
-4.0033756e-02   
2.2589629e-01   
8.8642567e-02   
7.9470985e-02  
-9.2538160e-02   
5.1599864e-02   
6.0397811e-02  
-1.0065875e-01  
-1.3831495e-02  
-3.1561979e-02   
6.1898369e-02  
-9.1401590e-02   
1.1837962e-01   
1.8814667e-01  
-2.0534009e-02   
9.1540292e-03   
6.0869444e-02   
1.3071339e-01   
6.2772212e-02   
5.0457297e-02  
-3.7346147e-02  
-1.2032533e-02   
7.2637956e-02   
1.7976674e-01   
6.8503290e-02  
-1.0875674e-01   
5.5334470e-02   
2.9986049e-03  
-1.2012565e-02  
-9.3436886e-03  
-7.5219245e-02  
-1.9140757e-02  
-6.5319605e-02  
-2.3192079e-02   
2.5213480e-02   
3.1102640e-02  
-7.7147209e-03  
-1.2279787e-03   
1.7584240e-02   
6.0225888e-02   
1.4274304e-01   
7.6771170e-02  
-1.3722972e-02   
7.4928234e-02  
-9.2443556e-03  
-1.6258256e-01  
-2.1905051e-01  
-1.5550387e-01  
-7.6748183e-03  
-4.5742425e-02  
-5.5613632e-02   
2.0650372e-02  
-4.9131239e-02  
-4.6102351e-02   
8.2263471e-02   
1.0388627e-01   
2.7366302e-01   
6.4597132e-02   
4.4540185e-02  
-1.4353387e-02   
2.7890578e-02   
4.6710500e-02  
-1.1946207e-01   
3.4731485e-02   
1.3977324e-01   
1.2094435e-02   
1.2294601e-01   
1.7701853e-01   
1.8994031e-01   
1.6426228e-01  
-1.3505412e-01   
3.8844053e-02   
1.8978268e-01   
1.4345289e-01   
1.0882259e-01   
1.5638082e-01   
2.3004804e-01   
1.3676965e-01   
4.9881673e-02   
1.1207989e-01   
1.1366905e-01   
2.2847435e-01   
1.8438240e-01   
2.0225540e-01   
1.6663875e-01   
1.1998034e-01   
1.6667299e-01   
1.8658123e-01   
2.9450242e-02   
1.9150133e-01   
2.7072452e-01   
1.6259650e-01   
3.2650227e-01   
2.2095973e-01   
1.1852440e-01   
1.4081252e-01   
1.2433539e-01   
1.7161548e-01   
2.1862027e-01   
1.0960883e-01   
1.8029255e-01   
3.0562506e-01   
2.1889345e-01   
2.0391902e-01   
3.5560056e-02   
5.9268542e-02   
1.3259232e-01   
9.3920546e-02  
-6.2871313e-02  
-5.6160593e-02   
1.9354885e-01   
1.0765356e-02   
2.9006077e-01  
-1.4432418e-01   
1.1839904e-01   
6.9233477e-02  
-1.0804875e-02   
1.0089973e-01  
-2.3269850e-02   
1.3774195e-01   
5.4098740e-02  
-1.2087873e-01  
-2.0376679e-01   
5.9733977e-03   
1.4458521e-01   
4.3769700e-02   
2.6725985e-02   
8.5724518e-02  
-1.2319868e-01   
1.5787152e-01  
-7.4857271e-02   
1.7497213e-02  
-2.3443289e-02   
2.7062186e-02  
-1.8315238e-01   
1.6288182e-01   
6.4266247e-02   
2.0987088e-01   
1.4973809e-01   
8.4119891e-03  
-8.7448112e-02  
-1.6824112e-01   
6.5397122e-03   
2.5951422e-02   
1.0781047e-01  
-9.2676958e-02   
8.1093947e-02   
7.9500835e-03  
-7.7368690e-02   
7.7416184e-02   
2.6565472e-02  
-2.3510553e-02   
1.8772922e-01   
6.0923940e-02  
-1.1027388e-02   
2.7745747e-02   
8.7045914e-03   
1.7359305e-02   
4.5359115e-02  
-6.0351803e-02  
-7.9702393e-02   
3.6064890e-02   
1.8850917e-01  
-3.0682183e-02  
-1.0127240e-01  
-2.3854551e-02  
-4.8401481e-02  
-3.2734452e-02   
4.7551798e-02  
-1.3000489e-02  
-5.9435328e-02  
-4.4376691e-02  
-1.3225296e-01  
-8.5952117e-02  
-1.4130012e-01  
-5.1598590e-02  
-1.0850981e-01  
-7.0715859e-02  
-3.0165455e-02  
-1.2004405e-01  
-1.9362266e-03   
3.4037056e-02  
-9.6323098e-02   
1.1139226e-01  
-1.5861054e-01  
-3.9179466e-02  
-1.4846862e-01  
-3.4462717e-02  
-1.3239159e-01  
-5.7483495e-02  
-7.4070673e-02  
-1.1850019e-01  
-2.0648600e-01   
5.6505981e-02   
2.0001424e-01   
2.2233277e-01  
-4.9217759e-02  
-4.6002934e-03  
-4.6574701e-02   
7.5947432e-03  
-9.1876964e-02  
-1.9194665e-01  
-3.6443143e-03  
-1.2251257e-01  
-1.9024343e-01   
2.3742486e-01  
-2.3334571e-02   
4.0388074e-02   
1.1924686e-01  
-1.6847588e-01   
4.1314853e-02   
5.0174522e-02   
8.3064345e-03   
1.5779805e-02  
-5.2794251e-02   
7.2306070e-02  
-8.4994165e-02  
-7.9638405e-02   
7.2533757e-02   
1.6865445e-01  
-3.8639417e-02  
-5.0507841e-02   
4.0807389e-02   
1.0723561e-01   
9.6798289e-02   
2.7014553e-02  
-6.3440654e-02   
6.2976318e-02  
-7.9233754e-03   
1.3769492e-01  
-1.4082125e-01   
1.4123168e-02   
1.2897194e-01  
-4.9493630e-02  
-6.2482495e-02  
-9.3363429e-02  
-2.7872491e-02  
-2.0052496e-02   
1.3674116e-02  
-8.8334886e-02   
8.2537923e-03  
-6.0387490e-02  
-3.6872826e-02  
-8.3817042e-02  
-2.8247504e-02   
3.5698678e-01   
3.4102661e-01   
1.1523853e-01   
7.9545874e-02  
-1.2672024e-01  
-5.7092443e-02  
-6.0300326e-02   
5.5443719e-02   
5.0485693e-02   
1.3307869e-02  
-3.1294738e-02  
-8.9577734e-02   
3.8126501e-03   
1.1746880e-01   
4.6563353e-02   
2.2203816e-02   
7.0121949e-02   
6.3071909e-02  
-1.5672441e-01   
7.0715303e-03  
-3.7128607e-02  
-1.9766188e-01  
-1.2684104e-01  
-2.5700973e-02   
8.9104009e-02  
-1.6094945e-02   
3.3332790e-02  
-8.2416872e-02  
-2.0807581e-01   
1.7319505e-02  
-8.6916944e-02   
1.2573357e-01   
1.9068175e-01  
-1.1299845e-02   
1.5385376e-01   
1.3862974e-01  
-8.9541920e-02   
5.7324493e-02   
9.5469493e-02   
1.3035476e-01   
1.5443158e-01   
1.6289006e-01   
1.7198798e-01   
8.1587702e-02   
1.5946764e-01  
-9.5048967e-02   
2.2103378e-02   
2.6783260e-01   
9.0259772e-02   
1.9778713e-01   
3.2454152e-01   
9.3535509e-02   
9.5195533e-02   
1.5054966e-01   
2.5262484e-01   
1.9674035e-01   
1.2813367e-01   
7.7317295e-02   
2.0628339e-01   
2.2989259e-01   
2.0718345e-01   
2.4320510e-01   
1.6855842e-01   
3.4172085e-01   
7.8033037e-02   
3.1865415e-01   
3.7979362e-01   
2.3670495e-01   
3.2457645e-01   
3.6816168e-01   
2.6858854e-01   
3.1975341e-01   
3.5339642e-01   
2.0953745e-01   
3.7783545e-01   
3.9484093e-01   
3.0857249e-01   
2.6903304e-01   
1.4213984e-01   
2.9914051e-01   
1.1913888e-01   
3.9086991e-01   
2.7550596e-01   
2.4040765e-01   
1.6563334e-01  
-2.1570537e-02   
6.7562363e-02   
2.1472798e-01   
4.1050679e-01   
2.3435454e-01   
1.8237180e-01   
8.8265780e-02   
1.4576016e-01   
2.2082711e-01   
9.0269030e-02   
2.9590945e-01  
-2.4224223e-02   
5.1244815e-02   
8.5178783e-02  
-1.2439016e-01   
1.1861260e-01   
6.0917330e-02   
5.2275341e-02   
1.1474334e-01   
1.3070879e-01   
9.7625703e-02  
-3.8407860e-02   
3.6311089e-03   
4.3451420e-02  
-1.1775817e-01  
-9.5865487e-02  
-3.5142842e-02   
1.5136065e-02   
1.8627799e-01   
8.6727050e-02  
-3.7433567e-02  
-5.6276832e-02   
1.5982767e-01   
2.7961786e-01   
2.2823495e-02  
-4.1991159e-02  
-1.3555426e-01   
1.0302570e-01   
3.4314566e-02   
1.2169926e-01  
-8.5896354e-02   
2.8847482e-02  
-6.0798886e-02   
1.3191697e-01  
-5.0881773e-02  
-4.6878286e-03  
-3.0913204e-02   
1.0308085e-01   
4.6343986e-02  
-9.7102389e-02  
-6.0136879e-02  
-1.0162332e-01   
5.3334150e-02   
3.5774591e-02  
-1.6114626e-01  
-1.8847326e-01  
-2.0133430e-03   
7.1561632e-02   
1.8538327e-02  
-1.5290579e-01  
-1.5389063e-01   
8.7813160e-02  
-1.3616149e-02  
-3.7887247e-02   
1.3217310e-01  
-7.9277963e-02   
1.3728367e-02   
4.1780643e-02   
5.7976665e-02  
-1.3345794e-01  
-3.6302039e-02   
1.7880146e-01  
-2.7135420e-01  
-1.0066989e-01  
-1.9105587e-01  
-2.7479903e-01  
-2.9929996e-01  
-1.9032304e-01  
-3.2561683e-02  
-3.6751816e-01  
-1.8449596e-01  
-2.4495438e-01   
5.8152043e-02  
-3.5494849e-02  
-5.4207766e-02   
7.1114030e-02   
5.8111865e-02   
2.1893374e-01   
1.3919849e-01   
9.5159392e-02   
2.8148980e-01   
4.6249225e-01   
2.3627003e-01   
3.8124135e-01   
5.5550237e-01   
3.1255065e-01   
6.1665149e-01   
6.7894663e-01   
6.7454263e-01   
6.2571453e-01   
7.5156815e-01   
8.1114395e-01   
9.4489409e-01   
9.6726444e-01   
9.1543306e-01   
1.1619877e+00   
9.2135737e-01   
7.7161165e-01   
7.3548004e-01   
7.9162371e-01   
6.5172498e-01   
6.4753028e-01   
4.9200693e-01   
6.6020756e-01   
1.7140179e-01   
2.2281399e-01   
1.8242500e-01   
1.2621333e-01   
1.8934353e-01  
-7.8851566e-03  
-1.1487756e-01  
-1.7008891e-01  
-1.7535899e-01  
-3.9301050e-01  
-3.5254576e-01  
-6.2768891e-01  
-5.5262536e-01  
-7.1248428e-01  
-7.5715056e-01  
-7.3717080e-01  
-9.5149096e-01  
-8.6796521e-01  
-8.5073842e-01  
-8.5208834e-01  
-5.7447420e-01  
-3.7313234e-01  
-4.3768515e-01  
-3.7297163e-01  
-3.8433442e-01  
-5.1413875e-02  
-1.6477185e-01   
5.9486647e-02   
3.6198014e-02  
-2.6123002e-02   
1.0857894e-01   
9.8790155e-02  
-1.0415401e-02   
1.3050632e-01   
1.7922300e-01  
-5.2857449e-03  
-2.4110095e-02   
4.2104056e-02   
3.6998165e-02   
8.2755844e-02  
-2.3372062e-02   
7.3880564e-02   
1.0741122e-01   
2.0488590e-02   
1.8245752e-02  
-1.2233422e-01  
-1.1399960e-01  
-1.4268145e-01  
-1.2078382e-01  
-1.1682710e-02  
-1.5748190e-01   
2.2879824e-01   
7.8302088e-02  
-2.0220831e-01  
-1.1071659e-01  
-5.7984661e-03  
-1.6618494e-01  
-4.0704235e-02   
1.1456748e-01  
-1.0738308e-02  
-8.9208056e-04  
-9.4145030e-02  
-4.9369680e-02  
-1.2877692e-01   
4.2982095e-02  
-3.8477549e-02   
8.5262057e-02   
1.3083137e-01   
1.1500978e-01   
3.9880947e-03  
-4.2744277e-02  
-1.1456519e-01   
1.9869862e-02   
1.0414855e-01  
-2.5709592e-02  
-8.7661324e-03   
7.0378000e-02   
9.5322136e-02  
-1.3257897e-01   
2.9289892e-02   
2.9059631e-02  
-5.4540458e-03   
9.9119860e-02  
-2.6395326e-02  
-7.2412928e-02   
3.7989321e-02   
5.6550169e-02  
-1.0997979e-02   
9.0547234e-02  
-1.4068507e-01  
-9.6192268e-02  
-2.9573489e-01   
6.3804652e-02  
-8.7256181e-02  
-1.3284143e-02   
1.1313721e-01   
1.7494134e-02  
-3.1468101e-02  
-7.2089514e-02  
-1.1097408e-02   
7.3414868e-02  
-1.3832119e-01   
6.6515722e-03   
9.1907958e-02  
-1.2822167e-01   
8.0969682e-02   
8.2539082e-02  
-7.3815955e-02  
-1.3587096e-01   
5.8076105e-02   
9.5769985e-02   
7.3020462e-02   
9.1593825e-02  
-1.0272154e-01   
7.4058179e-02  
-4.2145309e-02  
-4.0098811e-02  
-1.3936949e-01   
1.2642325e-01   
3.4090485e-02   
1.1712803e-01   
1.6804997e-01  
-9.2422941e-02   
8.9954611e-02   
2.8728576e-02   
1.2578236e-01   
1.4947766e-01   
1.2510716e-01  
-3.4349365e-02   
3.9115106e-02   
8.2529728e-02   
3.7632005e-01   
1.8748078e-01   
3.0123440e-01   
1.1497246e-01   
9.9057641e-02   
1.4354298e-01   
3.3800407e-02   
2.1509004e-01   
7.9518654e-02  
-3.7726647e-02   
1.9106916e-01  
-4.8516180e-02  
-7.1736329e-02   
1.4588175e-01   
2.6301466e-02   
3.4671179e-02   
1.1390128e-01   
8.5557831e-02   
1.1652162e-01   
1.7035828e-01   
3.0650346e-02   
2.9431814e-02  
-5.3740815e-02   
1.2153460e-01   
2.3133885e-01   
9.9036082e-02   
2.2374705e-01   
2.3199748e-01   
2.7268939e-01   
2.6820029e-01   
9.6026555e-02   
7.4875103e-02   
1.6104606e-01   
8.5369905e-02   
2.9277763e-01   
2.8113620e-01   
1.4831346e-01   
9.1735301e-02   
1.8117698e-01   
6.0117026e-02   
1.0889090e-01   
6.3994100e-02   
1.2324760e-01   
2.2117219e-01   
1.7823315e-01   
2.1399385e-01   
3.8102979e-03   
1.0891008e-01  
-1.1756678e-02   
1.2070915e-01   
1.1044425e-01   
2.0315371e-01   
1.7909381e-01   
1.3014136e-01   
9.9599082e-03   
8.5160568e-03  
-1.5339251e-01   
2.5813648e-03  
-1.1205964e-01   
1.3169078e-01   
1.2455039e-01   
4.3833326e-02  
-1.2188004e-02   
3.5607388e-02   
1.7745302e-01   
1.5105366e-01  
-2.9509264e-02   
3.1368977e-02  
-9.8328927e-02   
5.2986731e-02   
8.6012802e-02   
1.0130391e-01  
-1.4262949e-01   
6.0147309e-02  
-7.7543337e-02  
-2.9584470e-02   
8.6064963e-02   
3.6277384e-02  
-1.0724466e-02   
6.5515870e-02   
1.6748538e-01  
-5.9120962e-02  
-1.3258871e-01  
-1.1460989e-01  
-9.3620818e-02  
-6.7121094e-02   
5.7668117e-02  
-2.0857701e-01   
2.3596388e-02  
-7.7842135e-02   
1.0995619e-01  
-8.5556430e-02   
7.5576236e-04  
-9.3758577e-02  
-6.8155968e-02  
-2.6013943e-02  
-2.2879536e-02  
-5.2481299e-02   
1.1283185e-01   
5.5013925e-02   
1.8551474e-01  
-2.7729879e-02   
1.0666308e-01  
-2.0992389e-01   
6.3848377e-02   
3.7146546e-02  
-3.7417930e-02   
6.9534833e-02   
8.7762874e-02   
1.0336056e-01   
4.1979132e-02   
6.0106923e-02  
-6.7401831e-02  
-1.0951785e-01  
-2.6761673e-02   
1.8655037e-02   
9.5094467e-02  
-7.9051874e-02  
-4.8947798e-02   
2.9744739e-01  
-6.2258536e-02   
1.9203030e-01   
9.6114893e-02  
-5.5780316e-02  
-1.0655515e-02  
-2.1516125e-02   
4.7348969e-02   
1.3656410e-01  
-1.6378037e-01   
2.0237289e-01   
7.7778929e-02  
-5.4890192e-02  
-1.2601136e-02   
2.9958041e-02   
2.9617118e-02   
1.2007829e-01   
1.0901728e-01  
-3.5870323e-02  
-1.2992763e-02   
7.3373752e-02   
1.2033157e-02   
1.1363313e-01  
-6.8677312e-02   
4.7168286e-02   
2.8834247e-02   
1.3918548e-01  
-1.3455020e-01   
7.4740619e-05   
5.3494808e-03  
-2.3419052e-01   
1.2480951e-01   
2.8092319e-01  
-2.3218486e-02   
2.8703215e-02  
-4.6460449e-02   
3.8431778e-02  
-3.7982752e-02  
-1.0177823e-02   
1.6181511e-01  
-8.4722988e-02  
-5.7588318e-02  
-7.5913128e-03  
-1.3247159e-02   
1.4393097e-01   
2.0312629e-01  
-9.7820161e-02  
-6.4102367e-02   
5.2047567e-02  
-3.8070000e-02   
1.9928519e-01   
1.6358702e-01   
5.5901889e-02   
5.6363758e-02  
-3.3839662e-02   
7.6364737e-02   
1.1274423e-01   
1.4157117e-02   
1.9281341e-01   
6.7063791e-02  
-1.1011124e-02   
3.7096226e-02   
1.0965947e-01  
-3.9816311e-02  
-8.2728817e-03   
2.3787549e-01  
-4.6571982e-02   
9.5727580e-02   
8.3183025e-02   
1.6053733e-01   
5.4514814e-02  
-2.4433277e-01  
-8.2792433e-02   
5.3907276e-02   
2.8784599e-02   
1.9952522e-01   
1.4418535e-01   
5.3510601e-02   
1.2383658e-02  
-1.5047381e-01   
1.9096331e-01   
1.8323384e-02  
-1.4940616e-01   
4.8795708e-02   
1.6036264e-02  
-5.1020395e-02   
5.5593805e-02  
-6.4190359e-02  
-1.2796817e-01  
-1.6832244e-01  
-2.8999813e-02  
-5.5054945e-02   
5.1942855e-02  
-1.4206291e-01  
-1.2348968e-02  
-1.3334038e-01   
2.0684384e-01   
2.2870094e-02   
1.6588584e-01   
1.0145685e-01   
1.5151961e-01  
-4.6064167e-02   
2.0381086e-01   
2.3200614e-01  
-1.1223066e-01   
8.6499282e-02   
4.7637454e-02   
1.3719665e-01   
4.5218277e-02   
1.6684304e-01   
2.0734541e-01   
1.8080530e-01   
1.5319657e-01   
4.4788025e-02   
1.8818277e-01   
1.3903071e-01   
7.1918899e-02   
2.0289646e-01   
1.9624874e-01   
2.4512452e-01   
3.3384518e-01   
3.0093396e-01   
3.8258551e-01   
1.8777414e-01   
1.8294485e-01   
2.6860781e-01   
4.2511889e-01   
4.2586323e-01   
2.9161147e-01   
2.5320290e-01   
1.6952324e-01   
3.9746962e-01   
3.4126748e-01   
2.1227153e-01   
2.8765991e-01   
1.2923955e-01   
3.4625136e-01   
2.7692040e-01   
4.4851132e-01   
1.4051162e-01   
3.6457243e-01   
2.7295308e-01   
2.5791680e-01   
3.1239018e-01   
3.5113950e-01   
1.1575226e-01   
3.4581601e-01   
8.3992815e-02   
8.8648977e-02   
1.1987180e-01   
2.5184136e-01   
6.2266414e-02   
1.9380133e-01   
1.9258542e-01   
1.5787652e-01   
1.8898891e-01   
7.3146066e-03   
2.1642518e-01   
1.1808588e-01   
1.7080628e-01  
-9.4826485e-03   
8.5139024e-02   
1.5876314e-01   
1.6348465e-01   
4.4703043e-02  
-1.4114794e-01  
-7.4409510e-02   
4.8202662e-02   
9.6831823e-02   
5.4786996e-02  
-5.2972656e-02   
2.3254610e-01   
1.5156647e-02   
9.4289096e-02  
-3.4016220e-02  
-1.0412461e-01   
7.5710210e-02   
1.1076806e-01   
1.8903766e-01  
-4.6266572e-02  
-1.5634863e-01   
1.6799406e-01   
3.2493262e-02  
-1.0681926e-01  
-5.0206458e-02  
-7.5357618e-02   
1.2144310e-01   
6.4368965e-02   
2.9248974e-02   
2.8837726e-02  
-7.7544292e-02   
1.0373273e-01   
3.8876761e-02  
-2.2060295e-02  
-1.4602462e-02  
-6.4889016e-03  
-8.5203946e-02   
7.7453848e-02   
1.4235270e-01   
2.5033771e-01   
5.3155373e-02  
-7.9668837e-02   
2.2493176e-02  
-9.8494494e-02  
-5.9290627e-02  
-6.4054040e-02  
-8.1664863e-02   
3.9291769e-02  
-1.1024465e-01   
6.7829515e-02   
8.0454430e-02   
1.0448611e-01  
-1.4904295e-03   
6.2263768e-02   
1.8049058e-01   
5.2993311e-03  
-4.1800308e-02   
1.2922566e-01  
-3.2291426e-01  
-1.4170412e-01   
1.2298126e-01  
-1.9121321e-01  
-2.2411195e-01  
-3.1473713e-01  
-1.3680666e-01  
-4.5110704e-01  
-3.4406381e-01  
-2.3143808e-01  
-2.3873621e-01  
-1.2665577e-01  
-1.2686048e-01  
-2.1874107e-02  
-1.6915880e-01   
3.0934952e-02  
-9.7986564e-02   
1.8654201e-01   
1.2670051e-01   
2.7283361e-01   
2.0309811e-01   
3.3925287e-01   
4.6133940e-01   
2.0750595e-01   
2.6828074e-01   
3.2132767e-01   
6.3896612e-01   
6.4416931e-01   
5.8294866e-01   
8.5264254e-01   
7.6606110e-01   
6.4314315e-01   
7.4945442e-01   
7.6238927e-01   
1.0459450e+00   
9.3988797e-01   
8.0925160e-01   
7.9517033e-01   
6.9567898e-01   
7.9105966e-01   
6.7993651e-01   
5.8887608e-01   
5.2666236e-01   
4.1582291e-01   
2.4308078e-01   
3.1856762e-01   
1.0873463e-01   
1.0097631e-02  
-6.3680350e-02   
5.7124772e-02  
-5.2846891e-03  
-3.5283169e-01  
-2.6531807e-01  
-2.9887362e-01  
-4.5866558e-01  
-3.9508846e-01  
-5.1930281e-01  
-6.3358845e-01  
-7.4760549e-01  
-6.9772196e-01  
-7.5405331e-01  
-7.2213708e-01  
-7.2313071e-01  
-5.3713874e-01  
-6.5001017e-01  
-4.7496272e-01  
-2.7985062e-01  
-3.6854615e-01  
-3.6404461e-01  
-1.5401958e-02  
-1.6452266e-01  
-2.5753339e-02  
-8.0361148e-02   
2.8943192e-02   
4.7066307e-02   
1.0029078e-03   
3.3338032e-02   
1.2136992e-01  
-1.3931809e-01   
2.1832098e-02  
-1.9766159e-01   
4.4811340e-03   
1.9487403e-01   
9.6118417e-02   
1.4945423e-03  
-3.1454928e-02   
5.5378064e-02   
1.0842369e-01   
4.3900449e-03   
1.6457436e-01  
-7.8305015e-02  
-1.9631318e-01  
-7.1174162e-02  
-1.6103174e-02  
-3.3266531e-02  
-8.0545390e-02   
1.3809778e-01  
-1.5707550e-01  
-4.4443287e-02  
-9.2009435e-02  
-4.2307821e-02  
-6.1331163e-02   
5.3304937e-02  
-9.8456096e-02  
-7.6233943e-02   
1.6127176e-02   
1.1459472e-01  
-1.7907401e-01   
1.8653624e-01  
-8.1094219e-02   
7.1698733e-02   
1.1206421e-01   
1.3959930e-01  
-4.4263690e-02   
1.0085951e-02  
-8.3999824e-03  
-5.2547155e-02   
3.5372179e-02   
4.4247793e-02  
-2.6665812e-02   
2.1983943e-02   
2.7628838e-01   
8.3558401e-03   
8.0324990e-02  
-3.6776991e-02  
-4.3128596e-02  
-2.4737263e-02   
6.6479470e-02  
-6.9947973e-02  
-1.7490649e-01   
1.5892041e-02  
-3.2888834e-02   
3.8935684e-02   
1.9577775e-02   
8.4211341e-02   
1.0155699e-01  
-1.2089990e-01  
-1.4061170e-01   
6.2271764e-02   
4.2849822e-02  
-8.1523118e-02   
1.3631539e-01   
1.6058618e-02   
2.5296507e-02   
4.0515863e-02   
8.8720754e-02   
1.6593617e-01  
-1.2528905e-02  
-1.5921743e-01   
1.1537960e-01  
-7.8558192e-02   
1.3876570e-01  
-4.4368954e-02   
1.6391034e-01  
-6.5653395e-02  
-9.6133242e-02   
1.1100287e-01  
-1.2081400e-01   
8.3731906e-02   
5.9638021e-02   
1.7111531e-03  
-1.7933094e-02   
2.2218347e-01  
-2.0868849e-02  
-2.2534162e-03  
-7.6924089e-02  
-6.0045274e-02  
-3.2709104e-02   
2.0095712e-01  
-4.6855915e-03  
-3.0298337e-02  
-1.7620610e-03   
1.1884945e-01  
-7.9809497e-02   
1.1882765e-01  
-7.2662237e-02   
5.1734241e-02  
-1.1351875e-01   
1.2711492e-01   
1.4716096e-01   
1.3471319e-02   
1.1833568e-01   
1.0721415e-01   
2.1119331e-01   
1.1247234e-01   
2.0793115e-01   
9.6660037e-02   
4.7859269e-02   
1.1324265e-01   
1.0146010e-01   
2.1391138e-01   
1.2448179e-01   
5.0324120e-02   
1.2331543e-01   
2.6201109e-01   
1.0601271e-01   
8.5993569e-02   
2.5460612e-01   
1.7068161e-01   
1.2864009e-01   
9.5379700e-02   
2.5630051e-02   
1.9330328e-01   
1.4191255e-01   
2.0115431e-01   
1.9256015e-02   
2.9274231e-01   
2.0492745e-01  
-4.8073798e-03   
2.5320940e-01   
8.4393847e-02   
1.6902198e-01   
1.5639425e-01   
4.2276088e-02  
-1.6039559e-01   
1.7494811e-01   
8.2837039e-02   
5.2903075e-02   
1.5022842e-01   
3.5017269e-02   
1.6675264e-01   
1.1037147e-01  
-8.2019755e-03   
1.7026110e-01   
1.2967719e-01   
2.0309107e-01  
-1.5739590e-02  
-2.0356557e-02   
9.6151649e-02   
1.2717056e-01   
1.3892709e-01   
5.2414556e-02   
2.3822599e-02   
1.0834212e-01   
2.3516145e-01   
1.2281481e-01   
3.8458277e-02  
-3.1798635e-02   
7.1276025e-02  
-3.1461296e-02   
3.9986614e-02   
9.3159767e-02   
1.0695514e-01   
7.2534534e-02   
1.5070707e-01   
1.9722703e-01  
-1.7846704e-01  
-1.6737609e-01  
-8.2578894e-02  
-1.9091458e-01  
-2.7638981e-02  
-2.6376153e-02   
3.1499420e-02   
3.4265908e-02  
-6.3774242e-02  
-7.7295936e-02   
8.2568666e-02  
-3.5773218e-02  
-1.3550621e-01   
1.8378479e-03   
2.0413205e-02  
-4.1102551e-02   
6.6356118e-02   
2.2578214e-02  
-2.1284311e-02  
-4.4034571e-03   
4.5818182e-02  
-4.4141738e-02  
-1.0549467e-01  
-1.5558426e-02   
1.2914786e-02   
5.0942833e-02  
-3.0123529e-03  
-4.5736495e-02   
5.9633563e-02  
-1.1352845e-02   
8.0702442e-02  
-8.9802740e-03  
-6.2921252e-04  
-9.1860671e-03  
-9.2123828e-02  
-9.2695153e-02  
-9.6122067e-02   
1.7848298e-01  
-2.0018899e-02   
9.4041165e-02   
3.4915634e-02   
1.8592803e-01   
9.2707197e-02  
-1.2269638e-01  
-3.2723914e-02   
8.9164640e-02   
2.8818558e-02   
2.2651954e-01  
-4.7890330e-03  
-1.5518641e-01   
4.4408331e-02  
-9.1181888e-02   
4.9434648e-03   
1.0780459e-01   
3.0817876e-02   
2.9963854e-02  
-1.9721846e-02  
-1.4642243e-02  
-1.0307087e-02  
-2.7989819e-01   
3.9327518e-02   
9.9024715e-02  
-1.2976329e-01  
-1.5219684e-01   
6.2101131e-02  
-1.5075226e-01  
-1.6794021e-01   
7.8897620e-02  
-6.5428236e-02   
1.2449030e-01  
-1.2922644e-01  
-6.1435247e-02   
2.4169521e-02   
5.4934915e-02   
4.6763432e-02   
1.9145700e-02  
-2.2980496e-02  
-5.7921684e-02   
4.8048118e-02  
-3.8683264e-02   
4.2161554e-02   
1.0877059e-01  
-2.2493319e-01   
1.8044801e-01  
-6.3206038e-02   
1.3164582e-01   
1.5515921e-01  
-1.4689081e-01   
1.7693836e-02   
3.4662599e-01  
-2.1462672e-02   
4.8628256e-02   
3.3088512e-02   
1.2679021e-01   
1.0905142e-01  
-9.4645061e-02  
-4.3849914e-02   
3.4322067e-02  
-5.8403382e-03   
2.5349747e-01   
4.3864544e-02   
4.3751772e-02  
-8.3767600e-02  
-1.3075026e-01   
7.9414272e-02  
-1.9726379e-02   
6.4915282e-02  
-8.3147427e-02   
8.9595406e-02  
-1.8134864e-01   
1.5666835e-01   
8.4650066e-02   
1.1288857e-02  
-1.1556341e-01  
-3.8933450e-02   
2.6522925e-02   
1.2214581e-01  
-1.0171392e-01   
1.3142829e-01   
2.7899929e-01  
-4.7074354e-02   
4.9610287e-02  
-6.2722581e-02  
-1.6841524e-01   
1.5060576e-01   
7.3240955e-02  
-4.6969097e-02   
1.5712713e-02  
-1.8333366e-02  
-1.4125256e-01  
-2.8303952e-01   
7.2070781e-04  
-4.0505753e-02  
-5.1650374e-02  
-7.8309247e-02  
-1.7516259e-01  
-4.5338726e-02   
2.3251297e-02  
-9.8800005e-02   
5.2703830e-02  
-1.9351978e-02  
-1.9442322e-03  
-1.3443602e-01  
-5.9268776e-02   
6.6883513e-02  
-4.4425924e-02   
5.9428655e-02   
2.4975293e-01   
1.4018677e-01   
1.7309439e-01   
3.1408830e-01   
2.0429241e-01   
1.3522453e-01   
2.9927295e-01   
2.2380037e-02   
5.3328046e-02   
3.3207001e-01   
1.8437277e-01   
1.4342562e-01   
2.0215036e-01   
1.3861681e-01   
1.4453030e-01   
1.4374659e-01   
1.3572470e-01   
1.0544880e-01   
2.0253436e-01   
1.5974829e-01   
3.7009989e-01   
2.5816463e-01   
3.4544720e-01   
2.3802408e-01   
2.5254962e-01   
3.9522699e-01   
4.2495331e-01   
2.9009159e-01   
4.6474291e-01   
3.5176554e-01   
3.4974330e-01   
5.4078794e-01   
4.8385397e-01   
4.2970907e-01   
3.7027635e-01   
2.6727953e-01   
3.0066352e-01   
4.8545241e-01   
9.2169078e-02   
2.2168934e-01   
2.5757410e-01   
2.8234926e-01   
8.0201093e-02   
3.0256319e-01   
3.1369696e-01   
1.3777762e-01   
1.9692976e-01   
9.2571307e-02   
3.6744810e-01   
2.3341171e-01   
1.6203863e-01   
8.5649554e-02   
1.7912852e-01   
3.2875781e-01   
1.7892310e-01   
1.7779344e-01   
1.3494281e-02   
1.4121204e-01   
1.9328269e-01  
-3.1409688e-02   
2.1062909e-01   
3.3541249e-01  
-7.5855854e-02  
-1.3566158e-01   
5.4810679e-02   
1.2904903e-01   
3.6038807e-02   
1.9425232e-02   
2.6989703e-02  
-8.9053542e-02  
-1.5591693e-01   
1.6644533e-01   
3.7367530e-02  
-1.1083897e-01   
1.1533133e-01  
-1.2218373e-01  
-4.8078262e-03   
8.1262121e-02  
-7.7071026e-02  
-2.8130573e-02   
9.5954728e-03   
2.0168539e-01   
5.2166170e-02  
-3.3851606e-02  
-1.6643107e-02  
-2.2317167e-02   
1.3619935e-01  
-2.3094846e-02  
-7.4012611e-02   
2.9036097e-02  
-4.6746205e-03   
8.3929216e-02   
1.0036547e-01   
1.1294757e-01   
6.8769930e-02   
6.7123845e-02   
1.9401223e-01  
-1.1250219e-01  
-3.1414788e-02  
-1.6637456e-01   
9.4886285e-02   
4.9165705e-03  
-2.7354815e-02  
-1.6970660e-01   
2.0553946e-02  
-2.3946701e-02  
-1.3363660e-01  
-1.1408613e-01  
-7.4724797e-02  
-2.3740349e-02  
-1.6377093e-01  
-1.7277912e-02   
6.2305643e-02  
-3.7114737e-02  
-6.9435067e-02   
3.0596473e-02   
1.1010799e-01  
-6.8672097e-02  
-9.4693824e-02  
-2.1561596e-01  
-1.9381681e-01  
-5.9467037e-02  
-1.5543325e-01  
-9.1622941e-02  
-1.2510065e-01  
-1.7852333e-01  
-1.6344771e-01  
-1.1177711e-01  
-2.3045317e-01  
-1.9599461e-01  
-1.9334134e-01  
-2.6373086e-01  
-1.4045605e-01  
-7.8320788e-03  
-1.0201587e-01   
1.0548858e-01   
1.4047511e-01   
1.6775964e-01   
2.3744463e-01   
2.5922721e-01   
3.0418305e-01   
3.5505641e-01   
4.9842139e-01   
4.4597633e-01   
2.4044865e-01   
5.0549191e-01   
6.2324755e-01   
7.4916648e-01   
8.4077038e-01   
6.5813525e-01   
8.7791210e-01   
8.7516101e-01   
8.8007530e-01   
9.5293024e-01   
9.9719089e-01   
9.4047659e-01   
8.7663997e-01   
7.1216716e-01   
6.0126271e-01   
7.2878005e-01   
5.3666842e-01   
6.2653833e-01   
3.1910676e-01   
2.7855202e-01   
4.0653432e-01   
3.3160822e-01   
1.4388060e-02   
6.4380037e-02   
1.0428062e-01   
2.9881827e-02  
-3.0543862e-01  
-8.8670885e-02  
-2.5790342e-01  
-3.7489247e-01  
-4.9374405e-01  
-6.4134511e-01  
-6.0880330e-01  
-7.1753766e-01  
-5.3441059e-01  
-8.1997708e-01  
-7.8640820e-01  
-7.0055542e-01  
-6.9051112e-01  
-3.5214204e-01  
-4.2570437e-01  
-4.1200213e-01  
-2.3724955e-01  
-2.8297381e-01  
-2.1952053e-01  
-1.9549250e-01  
-1.3146515e-01   
1.6045532e-01   
7.7031792e-02   
9.0578452e-03   
1.7098266e-01   
3.0923813e-03   
2.9915527e-02  
-1.4089643e-01   
4.8803098e-02  
-1.4327391e-01  
-9.7187759e-02   
9.6760442e-02   
3.7127136e-02  
-8.5041170e-02  
-3.7443481e-02   
2.8195074e-02   
2.4736280e-02  
-1.6822808e-01  
-1.1747729e-01  
-1.7401088e-01  
-3.7864341e-03  
-1.6846651e-01   
7.4015351e-02  
-9.6537323e-02  
-1.0645096e-01   
1.8342997e-01   
2.2079464e-01  
-7.7189279e-02   
1.2157627e-03   
2.0140337e-01  
-4.8741417e-02   
1.7721785e-01   
8.7630546e-02   
1.1384050e-02  
-2.9298318e-02   
1.7551139e-01   
7.7483754e-02  
-5.6715431e-02   
4.6015850e-02  
-8.0870696e-02   
2.2002252e-02   
1.6047777e-01   
6.0656983e-02  
-6.8312256e-02   
4.2635119e-02  
-6.1761316e-02   
2.1013268e-01  
-1.7098650e-01  
-5.7385054e-02   
8.5893283e-02  
-7.3103911e-02   
1.0901266e-02   
7.4748219e-02   
1.3524682e-01  
-8.3048805e-02  
-7.1463232e-03  
-3.7143556e-02  
-1.2174076e-03   
4.7336879e-02  
-5.1291089e-02   
9.0764201e-02   
5.3604542e-02  
-3.6115889e-02   
3.8894613e-02   
1.0990439e-01   
1.1097468e-01   
7.8667094e-02   
5.5285884e-03  
-4.9799184e-02   
3.4803355e-02  
-3.4038442e-02  
-2.0451261e-02   
1.0542116e-01   
1.5782448e-01   
7.2887384e-02   
2.1881348e-01  
-1.3925636e-01   
1.6119678e-02   
2.3561650e-02   
1.7566805e-01   
6.4524984e-02  
-1.7804105e-02   
7.0183826e-02   
7.9188760e-02   
3.3389174e-02  
-1.8743873e-01   
1.1779926e-01  
-3.3348077e-01   
2.6804622e-02  
-1.3909524e-01  
-1.9290935e-02   
1.5625815e-01  
-3.4762841e-02   
2.0848487e-01   
9.4790209e-02  
-3.3445490e-03  
-6.4700394e-02  
-1.9585645e-02   
7.1805869e-02  
-1.9834501e-01   
1.0456621e-01   
7.5358317e-02   
1.3365014e-01   
2.6086609e-01   
2.8092812e-02  
-3.3235173e-02   
1.8713428e-01   
1.6298095e-01   
6.3581422e-02   
2.2879241e-02   
1.1146982e-01  
-2.2048321e-02   
1.0189118e-01   
3.5841072e-02   
2.2054577e-02   
2.0513250e-01   
1.1572386e-01   
2.5215042e-01   
1.2755153e-02   
1.4977089e-01   
2.5478070e-02   
1.9631977e-01   
2.6930324e-01   
2.4550073e-01  
-6.4034809e-02   
2.2002813e-01   
1.5707798e-01   
1.9398620e-01   
1.1016940e-01   
4.1640485e-03   
2.6289362e-01   
1.2726055e-01   
1.4063518e-01   
1.8609786e-01   
4.1858468e-01   
3.8992153e-01   
2.4340963e-02   
1.0444177e-01   
2.4624163e-01  
-6.4151017e-02   
2.6320243e-01   
1.0292405e-01   
2.7002560e-01   
3.7756249e-02   
2.9145333e-02   
3.4848106e-01   
1.7149028e-01   
7.7360387e-02   
6.8892654e-04   
2.0996861e-01   
1.2949262e-01  
-1.3546941e-01  
-3.7504781e-03   
3.7922919e-01   
7.6697855e-02  
-1.2643123e-01  
-1.9630665e-02   
2.2828817e-02   
1.2992508e-01   
3.9840168e-02   
6.1921292e-02   
4.5625972e-02  
-5.2972700e-02   
1.5598876e-01  
-2.1708780e-03  
-1.6336484e-02   
4.5151729e-02   
1.4606312e-02  
-3.5203861e-02   
2.8852026e-02   
2.2663679e-01   
6.8655955e-02  
-5.1787785e-02  
-7.4039233e-02  
-1.1783252e-02  
-1.4629930e-01   
1.9306746e-01   
3.0111978e-02  
-1.0746145e-01   
2.0132007e-02  
-1.3708791e-01   
6.4691425e-02  
-1.2496829e-02   
9.0435932e-03   
4.0219707e-02   
8.8599872e-02  
-7.8555894e-02  
-1.4509086e-01  
-9.5825212e-03  
-8.2291339e-02   
4.2498142e-02  
-1.8546844e-01   
8.5857509e-02   
3.0639365e-02  
-1.1115618e-01  
-3.1724072e-02   
8.3786265e-02   
2.4264653e-01  
-3.5108944e-02   
1.3819618e-01  
-8.6065546e-02   
2.0689047e-02  
-2.0749724e-02   
3.4025704e-02  
-4.9811215e-02  
-1.4213947e-01  
-2.7077415e-02   
4.3966311e-02  
-5.0614377e-02  
-1.8434823e-02   
4.0199901e-02   
5.3922824e-02  
-7.3359322e-02  
-2.6837199e-02   
8.7059843e-02   
3.3076052e-02  
-1.3478967e-01   
1.5478718e-01  
-6.1663675e-02  
-6.9857096e-02  
-1.4235951e-01  
-1.0963236e-02  
-1.0271211e-02  
-3.2271660e-02  
-8.3958739e-02  
-1.6605510e-01   
3.0124866e-01   
1.5008405e-01  
-3.5899163e-02  
-1.1487933e-02   
3.5890115e-02  
-1.2137355e-03  
-5.7035976e-02   
9.3403477e-02  
-1.1383168e-01   
1.9572382e-01  
-1.7632295e-01  
-3.2333433e-02   
8.7259219e-02   
1.1791539e-02  
-1.5030548e-01   
9.2183522e-02   
1.6324491e-02  
-8.1467084e-02   
4.0371009e-02   
7.5615741e-02   
2.1844397e-01  
-9.3782544e-03  
-2.9420609e-02  
-5.0480559e-02  
-1.9269990e-01   
5.2138067e-02  
-2.0544112e-01  
-2.6983751e-02  
-2.7503206e-02   
8.4514475e-02  
-2.7711814e-01   
9.1807491e-02  
-5.1925434e-02  
-1.2930122e-01  
-8.7180927e-04   
2.3335268e-02  
-4.2419570e-02  
-1.4694487e-01   
1.2064203e-01   
1.9734222e-02  
-7.0687553e-02   
1.2163673e-01   
3.6717042e-02  
-1.2675156e-01   
6.2105007e-02  
-1.7954546e-01  
-1.0578395e-01   
1.5154448e-02   
4.1126407e-02   
7.0497786e-03  
-1.9330266e-01   
8.1872201e-02   
1.2617571e-01   
1.1673429e-01  
-5.7032999e-02  
-3.9389757e-02  
-1.0174340e-01   
2.5020587e-02   
2.5212481e-02  
-7.7147891e-02   
9.1954546e-02   
8.5489128e-02   
6.6259366e-02  
-7.4526314e-02  
-1.3275669e-01   
6.6589376e-02   
1.4636191e-01  
-1.2709898e-01  
-2.1863193e-01   
1.4607117e-01  
-3.4334860e-03   
1.2078775e-01   
1.0183182e-01  
-1.1830398e-01  
-3.9360601e-02  
-7.9393528e-02   
2.2341985e-02   
1.2127759e-01   
1.0519316e-02  
-2.0481009e-01   
1.2899718e-01   
6.0079947e-03  
-3.9939464e-02  
-2.0403007e-01   
4.3953131e-02   
3.1352386e-02   
4.0965629e-02  
-1.0042543e-01  
-6.5361777e-02  
-8.3704898e-02   
1.8695652e-01  
-7.3565777e-02  
-2.4989661e-03  
-6.3144615e-02   
1.2564221e-01   
4.2038417e-02   
5.9243982e-02   
1.5460176e-01   
1.3688145e-01   
1.5665216e-01  
-1.2652117e-01   
1.1744345e-01   
2.0077664e-01   
1.4784508e-01   
2.1172479e-01   
3.4235970e-01   
2.6379711e-01   
3.5317460e-02   
7.3325123e-02   
1.5285335e-01   
1.0946971e-01   
1.7453141e-01   
3.1393527e-01   
1.4668500e-01   
1.7990870e-01   
1.9445621e-01   
2.9336668e-01   
3.3829595e-01   
2.2836329e-01   
2.2029900e-01   
3.5406420e-01   
3.4173073e-01   
3.2691839e-01   
6.1341737e-01   
2.9866517e-01   
3.3832018e-01   
3.0453718e-01   
3.8322998e-01   
2.7778554e-01   
4.3975372e-01   
5.1296061e-01   
3.2964653e-01   
3.0535259e-01   
2.4690586e-01   
2.4696234e-01   
1.1503363e-01   
2.7108242e-01   
1.7938735e-01   
3.8417824e-01   
2.6524059e-01   
2.4621704e-01   
3.7164636e-01   
4.5293614e-02   
2.4689120e-01   
9.9202852e-02   
1.3172355e-01   
2.1297188e-01   
2.6736457e-01   
8.5600242e-02   
2.1564465e-01   
2.9723809e-01   
5.6956281e-02   
3.4319575e-02   
1.2342923e-01   
1.7835759e-01   
1.0688377e-01   
1.6168517e-02   
1.0038328e-01   
1.0064273e-01   
2.6547026e-02  
-4.9978429e-02   
9.6673680e-02   
4.5914086e-02  
-1.0260022e-03  
-3.6783848e-02  
-3.2625261e-02  
-7.8244741e-02  
-9.5718969e-02   
1.3464926e-01  
-1.6223899e-02  
-1.6516549e-01  
-4.1270662e-02   
1.1340763e-01  
-4.6630430e-02   
1.8473450e-01  
-7.1135372e-02  
-6.8664915e-02  
-9.6865290e-02   
1.2264767e-01  
-5.1931019e-02   
4.7625596e-02  
-1.5910137e-01  
-5.1740648e-02   
7.1265872e-02  
-1.2288172e-01   
9.9866128e-03   
5.9630272e-02   
1.8245042e-01   
6.8530236e-02   
9.8907626e-02  
-3.1372441e-02  
-5.4012889e-02   
9.3319301e-03  
-8.5831901e-02   
1.1552393e-01   
8.0714785e-02   
9.9197241e-02   
1.2884185e-01  
-8.2126327e-03  
-5.5320766e-02   
5.4774019e-02   
1.1722250e-01   
8.7680186e-02   
9.6215689e-02   
1.5208688e-01   
3.0823404e-02   
1.2151507e-01  
-2.6343101e-04   
7.9686955e-02  
-1.3980553e-01   
1.5457907e-01  
-1.7730645e-01   
2.0565654e-02  
-5.8632290e-02  
-1.6392088e-01  
-3.8451265e-02  
-6.2820892e-02   
2.1064439e-02  
-1.3038150e-01  
-1.1031628e-01  
-1.6778160e-01  
-6.9334582e-02  
-1.2705759e-01  
-2.6305898e-01  
-2.7570222e-01  
-6.0648803e-02  
-2.1299547e-01  
-5.3705316e-02  
-1.7779636e-01  
-1.1661181e-01   
9.5404737e-02   
1.2350066e-01   
2.1402305e-01   
9.4438358e-02   
3.0910012e-01   
2.7403742e-01   
3.0164112e-01   
5.2484675e-01   
5.4918033e-01   
2.2991173e-01   
5.4021215e-01   
4.6908276e-01   
5.7369548e-01   
5.8976940e-01   
8.6518568e-01   
8.7638863e-01   
8.5735335e-01   
9.2171073e-01   
9.4672898e-01   
1.0188547e+00   
1.0251290e+00   
9.0859029e-01   
9.0365394e-01   
7.4833212e-01   
6.6632569e-01   
6.0522954e-01   
5.4983105e-01   
4.8588767e-01   
6.6470499e-01   
2.1564180e-01   
1.5723172e-01   
2.1545332e-01   
1.1222699e-01  
-2.9286249e-02   
2.8682041e-03  
-2.8090739e-02  
-2.9232131e-01  
-2.9129518e-01  
-4.5285844e-01  
-3.8926935e-01  
-4.5480651e-01  
-4.7648829e-01  
-7.2694185e-01  
-6.6211517e-01  
-7.7975455e-01  
-6.9978768e-01  
-7.3839306e-01  
-7.5287096e-01  
-6.5213051e-01  
-6.1294407e-01  
-3.4550465e-01  
-4.7060149e-01  
-5.1025982e-01  
-2.9978532e-01  
-9.5395422e-02  
-7.3501400e-02  
-5.3506818e-02   
1.7854055e-01  
-5.8588899e-02   
2.6268129e-02  
-8.6636605e-02  
-7.8062658e-02  
-3.3522729e-02   
6.5855203e-02   
2.0668842e-01   
8.1352166e-02  
-1.0546751e-01  
-1.8693059e-02  
-5.3439572e-02  
-2.7107322e-02   
1.2039243e-01   
4.0290992e-02   
1.0189117e-01   
6.3261172e-02  
-7.6190380e-02   
9.6362286e-02  
-1.3157610e-01   
8.3623927e-02   
6.3790970e-02   
1.1405236e-01  
-1.3778246e-01  
-1.5989635e-02   
6.3475305e-03   
1.4773617e-02   
9.2556382e-02   
7.5172391e-02   
7.0486797e-02   
2.3320507e-02   
1.7325076e-01  
-2.6677778e-02   
1.6128999e-02  
-5.1472759e-02   
2.2590234e-04   
7.9119739e-02  
-1.1599097e-01   
2.6018520e-02  
-6.6374129e-02   
8.6128410e-02  
-1.8906602e-01  
-1.8789797e-01   
1.7026606e-01  
-6.9230523e-03  
-1.8862561e-01  
-1.6023030e-01  
-1.2646813e-04   
3.9486559e-02   
4.2684760e-02   
1.1581162e-01   
4.2588849e-02   
2.1285804e-03   
1.1443488e-01   
2.1572773e-01   
1.2693027e-02  
-1.3846487e-02   
1.1423571e-01  
-4.0152090e-02  
-1.3755528e-01   
2.8614589e-04   
3.5643580e-02   
2.5878738e-02  
-1.0032686e-01  
-4.8030181e-02  
-5.6102633e-02   
1.0753388e-01  
-8.6937440e-04   
7.7333347e-02   
7.2426682e-02  
-6.4926289e-03  
-1.8514022e-01   
4.9415752e-02   
8.3699133e-02  
-6.1773272e-02   
1.1976924e-02  
-3.0315498e-02   
1.8416665e-01   
1.1158496e-02   
3.4789443e-02  
-9.0201107e-02  
-5.8774871e-02  
-1.2071185e-01   
8.7985221e-02   
7.6027597e-02  
-6.7337378e-02   
3.0443784e-01   
1.0776920e-01   
5.6616812e-02   
2.0783855e-01  
-2.2916635e-01   
7.4783136e-03   
1.4298899e-02   
3.6942757e-02  
-8.2530504e-02   
7.8589455e-02  
-1.9170730e-01   
4.5098029e-02   
8.2599141e-02   
3.8960668e-02   
8.3842736e-02  
-2.4606134e-02   
1.1106784e-01   
2.3003485e-02  
-1.0109684e-01   
3.8148006e-02   
1.1528372e-02  
-2.4584634e-02   
1.3272615e-01   
9.0625415e-02   
6.5456890e-02   
4.0508131e-02   
2.6729293e-01   
2.2128563e-01   
8.9431019e-02   
1.2134622e-01   
2.6829678e-01   
3.0071965e-01   
2.3600644e-01   
9.7511452e-02   
7.6166515e-02   
2.1395854e-01   
5.6778194e-02   
4.0415878e-02   
1.1633157e-01   
2.5179501e-01   
1.7648703e-01   
1.8940485e-01   
2.8173745e-01   
1.9707708e-01   
6.4109854e-02   
2.5782366e-01   
2.1689667e-01   
1.5607170e-01   
1.1925530e-01   
1.0174872e-01   
1.4945458e-01   
6.7452070e-02   
9.1932590e-02  
-9.8677206e-03   
8.2583818e-02   
6.0773293e-02   
1.8350957e-01   
2.6688928e-01   
2.2058925e-01   
2.1737131e-01   
1.7595821e-01   
1.5864480e-01   
1.7463240e-01   
2.2297825e-02   
1.7425016e-01  
-3.3276941e-02   
1.4410364e-01  
-5.3667790e-03  
-2.3526806e-02   
2.3819786e-02  
-6.5451694e-02   
6.2064727e-02   
1.6718136e-01   
2.6826239e-02   
9.6981982e-02   
5.9263758e-02   
1.5989030e-01   
1.8524832e-02   
5.9301684e-02   
2.7242421e-01   
1.3592434e-01  
-7.6435159e-02   
1.2812126e-01  
-7.7087726e-02   
1.5518541e-02   
4.2657428e-02   
9.9913945e-02  
-2.7619641e-02   
6.5085213e-02   
1.8746600e-01  
-1.8086327e-01  
-9.8796685e-02   
1.2756511e-01  
-2.2130923e-02   
2.6390390e-03   
9.8043174e-02   
2.2714873e-01  
-1.2615403e-01  
-8.7670674e-02  
-5.3287095e-03   
1.6652497e-03   
1.1492647e-02  
-3.1246453e-02   
1.2196467e-01  
-9.0956139e-02   
2.0397663e-02   
9.8974745e-02   
3.7519958e-02  
-6.2212621e-02   
1.2055499e-02  
-3.1739604e-02  
-5.9968385e-02   
1.3531539e-01  
-1.9766765e-02  
-5.7800196e-02  
-7.5596950e-02   
1.2119893e-02  
-1.4958414e-01  
-1.6461589e-01   
1.9289750e-02  
-1.2897696e-01  
-3.9984896e-02   
7.7540305e-02   
9.2214998e-02   
1.5445358e-01  
-1.0095623e-01   
8.5670638e-02   
3.2528654e-02   
1.2524388e-01   
2.2015858e-02   
8.1519668e-02   
1.1394222e-01  
-4.1171096e-02  
-4.6106510e-02  
-1.3290486e-01  
-8.7500182e-03   
3.5544599e-02  
-7.4313873e-02   
7.2030684e-03  
-3.5640336e-02  
-4.3169178e-02   
7.7932818e-02   
8.1632458e-02   
1.1483040e-01  
-1.0849599e-01  
-1.3612227e-02   
6.5509173e-02  
-1.2934611e-01   
1.9267400e-01   
2.3325175e-02  
-5.4502235e-02   
1.0328125e-01   
3.7713655e-02   
1.0925533e-02  
-6.8018830e-02  
-1.7653924e-01  
-9.6356772e-02  
-6.4563264e-02   
4.5252778e-02   
6.1449822e-02  
-7.8530065e-02   
8.2817619e-02   
6.6741701e-02  
-1.2550088e-02  
-9.5122887e-02   
8.9204000e-02  
-1.2972158e-02  
-1.0134851e-01   
2.5228702e-02   
5.2358533e-02  
-1.4616296e-01   
1.8664056e-01  
-2.1490520e-01  
-1.6352367e-01   
1.2240191e-01   
3.2517401e-02  
-4.2891304e-02   
1.1596089e-03   
7.3131847e-02  
-8.6802276e-02   
9.2815958e-02   
6.9731676e-02  
-4.5150343e-03   
1.9121114e-02  
-6.2876296e-02  
-8.5661321e-02  
-3.8871274e-02   
1.0285085e-01  
-2.3972032e-02  
-4.5162277e-02  
-9.7926722e-02  
-1.1334473e-01   
2.2120893e-03   
1.0402395e-01   
1.2314841e-01   
5.6017942e-02  
-3.0903867e-02  
-3.6760408e-02   
3.6563336e-02   
9.3743870e-02   
9.7697744e-02  
-2.1134565e-01  
-3.8263540e-03  
-9.5584597e-02  
-4.5758035e-02   
1.7516298e-01  
-7.5839399e-02  
-1.6619275e-01   
2.0163071e-02  
-9.7140196e-03  
-3.8548378e-02   
9.1226307e-02   
6.0166665e-02   
4.1418927e-02  
-2.3594781e-02   
3.9383827e-02  
-2.4483367e-02   
2.3528528e-02   
6.2854040e-02   
3.9433195e-02  
-6.1541868e-02  
-4.7687153e-02  
-9.7728186e-02   
1.0628939e-01   
4.2289408e-03  
-5.8592210e-02   
7.5155644e-02  
-4.3428957e-02   
5.2528292e-02   
1.5986466e-01   
1.0225020e-01   
1.1558997e-03   
1.4485947e-02   
2.2827997e-01   
2.6185061e-02   
8.2079387e-02   
9.3258993e-02   
1.6184138e-01   
9.9584431e-02   
1.2337783e-01   
1.2766558e-01   
3.7304843e-01   
2.0045256e-01   
3.3894264e-02   
8.4961570e-03  
-2.2545523e-02   
3.3164409e-01   
7.4441055e-02   
2.6424478e-01   
2.2711059e-01   
2.9753693e-02   
3.9340991e-01   
2.5505118e-01   
3.9053342e-01   
2.5148122e-01   
2.4387051e-01   
1.3268013e-01   
2.4706949e-01   
2.6571947e-01   
1.0859950e-01   
2.6751047e-01   
2.9442458e-01   
2.1468243e-01   
3.3655543e-01   
1.8292958e-01   
2.5551581e-01   
3.3212709e-01   
2.6977585e-01   
3.8116251e-01   
2.9376950e-01   
2.3370621e-01   
4.0534446e-01   
3.6325661e-01   
3.5145581e-01   
3.5389810e-01   
3.7739647e-01   
3.6660883e-01   
2.6195815e-01   
2.0462943e-01   
2.2965815e-01   
3.5557699e-01   
1.0307244e-01   
1.5748640e-01   
3.0932399e-01   
2.8066064e-01   
1.3757419e-01   
1.5751337e-01   
1.5368287e-01   
1.3279001e-01  
-9.2927753e-02   
9.9732214e-02   
1.6443788e-01   
3.6975670e-01  
-3.0596286e-02   
4.3179697e-02   
5.9253906e-02  
-5.3592254e-03   
1.2558558e-02  
-1.2142119e-01   
5.0828782e-02   
1.2869380e-03   
9.7703473e-02   
4.1013350e-02   
1.3292161e-01   
1.7948090e-01   
2.0659946e-02  
-1.1551374e-01   
3.2518674e-02   
1.4774771e-01  
-1.8096767e-03   
4.6315701e-02  
-8.9262261e-02   
1.5810359e-01   
4.7383811e-02  
-3.5397620e-02  
-1.6077014e-01  
-6.2314968e-02  
-9.6454724e-02  
-4.3176163e-02   
4.0576189e-02   
8.8646375e-02   
2.1090154e-02   
1.3714054e-02   
4.2620118e-02   
2.7029442e-01   
3.8061375e-02   
1.8682831e-02   
1.6220502e-01   
1.3192062e-02  
-6.3245315e-02   
9.7058174e-02  
-3.2104441e-02   
2.3710534e-02   
9.0941175e-02   
8.3926742e-02  
-1.5738571e-01  
-2.3344174e-01  
-6.7590792e-02   
1.6758532e-01   
2.5718043e-02  
-1.3148749e-02  
-1.3746562e-02   
1.0547454e-01   
3.4522218e-02   
4.8870272e-02  
-2.0794480e-01  
-1.6482332e-02   
2.6557370e-03  
-8.5450045e-02  
-1.9264844e-03  
-6.0047496e-02   
8.6990179e-02  
-8.1092545e-02   
8.2445351e-02  
-7.6298321e-02  
-6.4921208e-03   
1.0842911e-01  
-1.3738506e-01  
-1.8620152e-02  
-2.9933682e-01  
-3.3767232e-02  
-3.6095591e-01  
-2.7066345e-01  
-3.2081923e-01  
-3.5350699e-01  
-3.1985241e-01  
-7.4866267e-02  
-2.2888124e-01  
-1.7448547e-01   
1.2201367e-01   
5.8839756e-02   
1.4618221e-01   
6.7624334e-02   
1.8762174e-01   
2.8753900e-01   
3.2313419e-01   
5.3474008e-01   
3.4306764e-01   
4.4002346e-01   
5.8778474e-01   
6.4891602e-01   
4.0627683e-01   
6.1400640e-01   
6.3506682e-01   
7.5067952e-01   
8.5334277e-01   
8.9585194e-01   
1.0150025e+00   
9.9522442e-01   
1.0315440e+00   
1.0209998e+00   
8.9574767e-01   
6.4686134e-01   
7.1674486e-01   
4.6673120e-01   
6.6971128e-01   
2.7429857e-01   
3.5654173e-01   
3.4739218e-01   
2.6058480e-01   
3.7914019e-01   
1.2283420e-01  
-1.7660201e-02   
2.8871152e-02  
-2.2406072e-01  
-1.2241610e-01  
-2.2541544e-01  
-3.6334254e-01  
-4.5983131e-01  
-5.9023411e-01  
-7.3259243e-01  
-6.6070593e-01  
-6.1414021e-01  
-8.3681633e-01  
-6.8051908e-01  
-8.5789893e-01  
-4.8506959e-01  
-6.9845510e-01  
-5.4939230e-01  
-3.4590894e-01  
-2.9615141e-01  
-4.2534073e-01  
-2.0580320e-01  
-3.2118189e-01  
-3.1041742e-01  
-3.7990193e-03  
-1.7296420e-01  
-2.1362510e-01  
-5.6402686e-03   
1.3911582e-01   
1.2251058e-01  
-1.4859384e-01   
4.8218037e-03   
8.1562830e-02   
9.8843350e-02   
1.5771363e-01   
1.6044744e-01   
8.7634516e-02  
-1.4026131e-01   
6.3394701e-03  
-1.3543968e-01   
1.2604082e-01   
1.7712362e-01  
-1.9705128e-01   
8.6830180e-02  
-3.0819103e-02  
-4.4151231e-02  
-8.5082913e-02   
1.3035239e-01   
4.2511842e-02  
-7.5127611e-03   
4.6280940e-02   
1.0606065e-01  
-8.2031027e-02  
-7.4365077e-02   
7.4135448e-02   
1.6403476e-01   
1.3066760e-01  
-5.7283843e-03  
-1.2716276e-01  
-2.2808409e-01  
-8.6277620e-02   
1.1951771e-01  
-4.8169542e-02   
3.5298630e-02   
2.8385641e-02  
-2.1298636e-01   
1.3257951e-01   
2.1012496e-01   
3.9470334e-03   
1.0787732e-01  
-6.7532167e-02   
6.7997966e-02   
2.2088740e-01   
1.3992049e-01  
-6.1063953e-02  
-9.2848881e-02   
1.4606175e-02  
-1.4224971e-02   
3.3855962e-03   
1.3695235e-01   
3.2137529e-02   
1.7660826e-01   
6.0922027e-03  
-2.7531054e-03   
9.0072671e-02   
5.3562192e-02  
-9.8729996e-03  
-1.4751647e-01  
-1.0015638e-01   
7.3349437e-02   
6.6192607e-02  
-1.3476117e-01   
2.4201513e-02   
6.5328478e-02  
-1.0494925e-01  
-8.7064098e-02   
1.3234390e-01  
-1.6224782e-01   
5.7957109e-02   
1.1129242e-01  
-1.6545706e-01   
8.3201986e-04  
-1.0349056e-01   
2.3211627e-02  
-2.7818922e-02  
-1.5051344e-01   
7.6559031e-02   
7.4560442e-02  
-4.6717070e-02   
6.8096450e-02  
-1.1894065e-01  
-1.0780312e-01  
-9.9488331e-02   
5.1051034e-03  
-3.6199319e-02   
2.0753225e-01   
9.4740514e-03   
7.2950440e-02   
7.4356323e-02   
5.8474318e-02   
4.4822159e-02   
1.5441310e-01  
-8.2059589e-02   
2.0223517e-01   
1.1169298e-01  
-6.7536844e-02   
1.6277936e-01   
1.7437181e-01   
2.3120006e-01   
2.2787515e-02   
2.3310864e-01   
9.9869526e-02  
-6.8473822e-02   
4.6091958e-03   
1.7952690e-01   
2.7022569e-01  
-2.3033454e-02   
8.8515946e-02   
3.8308760e-02   
2.9631056e-01   
2.3080872e-02   
2.5019134e-01   
5.8935266e-02   
2.0341228e-01  
-2.3291719e-03   
2.8447567e-01  
-8.1490469e-02   
1.7540310e-01   
1.8960388e-01   
6.9785131e-02   
5.9561179e-02   
2.2149368e-01   
6.1289533e-02   
1.6643873e-01  
-1.0836239e-01  
-3.0138853e-02   
1.6913898e-01   
2.8105798e-01  
-3.9685432e-05   
2.2842559e-01   
2.0563938e-01   
9.3008387e-02   
1.4511097e-01   
3.6228293e-01  
-1.2582846e-03   
1.8245796e-01   
1.5085127e-01   
1.5795287e-01   
1.2080453e-01   
1.4517968e-01   
8.7555036e-02  
-6.1008796e-02   
4.5583723e-02   
1.2307780e-01   
1.2116034e-01   
1.5129555e-01   
3.0867464e-01  
-8.3186769e-02   
1.4591553e-01   
8.7105606e-02   
6.5372121e-02  
-4.4946668e-03   
4.7714745e-02   
1.2415162e-01   
9.4385088e-02  
-1.1315513e-01   
1.3368108e-01   
6.3659614e-02   
2.2377921e-01  
-8.1233285e-02  
-4.6551406e-02  
-1.5391772e-01   
1.7310384e-02   
1.1565648e-01  
-3.2561988e-02  
-3.7382291e-02  
-1.5745232e-02  
-3.1413511e-03   
1.1445814e-01   
1.2888909e-02  
-3.7773374e-02   
7.3152681e-02  
-1.2756568e-01   
6.7933505e-02  
-1.3385889e-02   
2.2039345e-01  
-5.9231660e-02   
4.7201839e-02   
1.5822047e-02  
-1.0484944e-01   
8.9973977e-02  
-2.2101396e-01  
-1.9380403e-01  
-1.3095947e-01   
1.3056231e-01   
9.8396953e-02  
-1.2513864e-01  
-1.7975379e-02  
-7.4340645e-02   
2.3324192e-02   
2.1013448e-01  
-8.7666631e-02   
1.9487885e-01  
-4.6527218e-02  
-6.5191720e-02   
6.0963059e-02   
7.0912402e-02   
2.7979604e-02  
-1.4674561e-01  
-6.9131731e-02  
-8.6798846e-02  
-5.1250774e-02  
-7.8208649e-02   
4.2578916e-02   
1.0115405e-01  
-2.5066737e-02   
5.5423606e-02   
7.5888080e-02   
1.3384266e-02  
-2.7256150e-02  
-5.4262765e-02  
-1.1631046e-01  
-2.7351740e-02   
1.5950387e-02  
-1.8670812e-02   
2.1790415e-02   
4.6238300e-03   
6.7032497e-02  
-6.3050094e-02  
-1.1841016e-02   
2.4206458e-02  
-3.7608463e-02   
2.8044441e-02  
-1.7744521e-01   
4.5857781e-02   
4.6182289e-02  
-1.1874866e-04  
-3.5293875e-02  
-4.3299126e-02  
-1.7047741e-01   
1.0957167e-01   
6.3577212e-02  
-1.0871843e-01  
-1.4772654e-01  
-3.8524941e-02   
6.8083666e-02   
8.3264935e-02   
5.3459824e-02   
7.6802457e-02   
1.7548877e-01  
-1.7043124e-01   
4.6950822e-02  
-5.4303845e-03  
-7.4887498e-02   
7.1676404e-02  
-5.5129014e-04   
1.2001143e-01  
-1.0340171e-01  
-8.4756775e-02   
4.3342204e-02  
-8.8752398e-02   
1.2123262e-02  
-4.0190489e-02   
1.0966783e-01   
4.3667465e-02  
-4.0700469e-02  
-6.3869017e-02  
-4.0488120e-02   
2.3938625e-01  
-4.9623014e-03  
-2.0257591e-02  
-1.9753405e-02   
1.5163160e-01  
-1.7322081e-01   
1.1124725e-01  
-7.1928103e-02  
-2.7336558e-02   
6.7740442e-02  
-9.3645082e-02   
4.2571685e-02  
-7.4543103e-03  
-1.3988073e-01   
1.9230610e-02   
5.8038972e-02   
6.3785926e-02  
-5.6598162e-02  
-1.6137626e-03   
6.2232257e-02   
5.3343636e-02  
-3.8934076e-02 
