03-Feb-2021 09:27:14

toms886_test:
  MATLAB/Octave version 9.9.0.1467703 (R2020b)
  Test toms886.
03-Feb-2021 09:27:14

ellipse_test:
  MATLAB version
  Interpolation of the Franke function
  on the disk with center = (0.5,0.5) and radius = 0.5
  of degree = 60
0  0.5  0.481806
1.85113e-05  0.495698  0.486304
0.000294534  0.482841  0.500441
0.00147692  0.461598  0.52626
0.0046035  0.432307  0.567433
0.0110312  0.395552  0.62921
0.0223311  0.352242  0.717059
0.0401474  0.303695  0.832247
0.066023  0.251678  0.963381
0.101204  0.198401  1.07808
0.146447  0.146447  1.12751
0.201843  0.098624  1.0742
0.266718  0.0577564  0.926017
0.339594  0.0264286  0.73626
0.418272  0.0067247  0.563116
0.5  0  0.434914
0.581728  0.0067247  0.352914
0.660406  0.0264286  0.310959
0.733282  0.0577564  0.303626
0.798157  0.098624  0.321482
0.853553  0.146447  0.347383
0.898796  0.198401  0.362307
0.933977  0.251678  0.355516
0.959853  0.303695  0.328561
0.977669  0.352242  0.290672
0.988969  0.395552  0.251665
0.995397  0.432307  0.217926
0.998523  0.461598  0.192095
0.999705  0.482841  0.174443
0.999981  0.495698  0.164313
1  0.5  0.161026
0.000664112  0.498925  0.483165
0.000756328  0.490344  0.492341
0.00137803  0.473286  0.512014
0.00337815  0.447998  0.54502
0.0079633  0.414927  0.595882
0.0166109  0.37481  0.670277
0.0309464  0.328751  0.77238
0.0525846  0.278286  0.898349
0.0829433  0.225407  1.02687
0.123045  0.172521  1.1153
0.173333  0.122341  1.11575
0.233524  0.0777113  1.01041
0.30254  0.041364  0.833028
0.378531  0.0156626  0.645487
0.458996  0.00234935  0.493201
0.541004  0.00234935  0.388757
0.621469  0.0156626  0.327597
0.69746  0.041364  0.303943
0.766476  0.0777113  0.311171
0.826667  0.122341  0.335824
0.876955  0.172521  0.358498
0.917057  0.225407  0.363202
0.947415  0.278286  0.345466
0.969054  0.328751  0.311622
0.983389  0.37481  0.271994
0.992037  0.414927  0.234952
0.996622  0.447998  0.20491
0.998622  0.473286  0.183133
0.999244  0.490344  0.169283
0.999336  0.498925  0.16261
0.00265006  0.5  0.482776
0.00266848  0.49572  0.487316
0.00294304  0.482931  0.501587
0.00411915  0.461801  0.527649
0.00722916  0.432666  0.569201
0.0136228  0.396105  0.631517
0.0248628  0.353025  0.720061
0.0425846  0.304736  0.836031
0.0683231  0.252994  0.967889
0.103318  0.199999  1.08306
0.14832  0.14832  1.13256
0.203424  0.100751  1.07882
0.267954  0.0601004  0.929743
0.340444  0.0289386  0.738801
0.418705  0.00933912  0.564584
0.5  0.00265006  0.435831
0.581295  0.00933912  0.353962
0.659556  0.0289386  0.312725
0.732046  0.0601004  0.306468
0.796576  0.100751  0.325476
0.85168  0.14832  0.352329
0.896682  0.199999  0.367821
0.931677  0.252994  0.361168
0.957415  0.304736  0.333995
0.975137  0.353025  0.295669
0.986377  0.396105  0.256146
0.992771  0.432666  0.221918
0.995881  0.461801  0.195682
0.997057  0.482931  0.177739
0.997332  0.49572  0.167435
0.99735  0.5  0.164089
0.0059572  0.498936  0.485134
0.00604844  0.490446  0.494482
0.00666355  0.47357  0.514524
0.00864247  0.448549  0.548142
0.013179  0.415829  0.599912
0.021735  0.376137  0.675534
0.0359185  0.330566  0.779114
0.0573273  0.280637  0.906596
0.0873642  0.228318  1.03632
0.127041  0.175992  1.12529
0.176796  0.126345  1.1254
0.236348  0.0821876  1.01876
0.304633  0.0462257  0.839283
0.379818  0.0207967  0.649421
0.459431  0.00762457  0.495458
0.540569  0.00762457  0.390595
0.620182  0.0207967  0.330332
0.695367  0.0462257  0.308537
0.763652  0.0821876  0.318061
0.823204  0.126345  0.34487
0.872959  0.175992  0.369086
0.912636  0.228318  0.374486
0.942673  0.280637  0.356641
0.964082  0.330566  0.322111
0.978265  0.376137  0.281506
0.986821  0.415829  0.243444
0.991358  0.448549  0.212502
0.993336  0.47357  0.190028
0.993952  0.490446  0.175712
0.994043  0.498936  0.168808
0.0105722  0.5  0.485715
0.0105903  0.495789  0.490381
0.0108605  0.483203  0.505049
0.0120178  0.46241  0.531832
0.0150783  0.433739  0.574502
0.0213701  0.39776  0.638393
0.0324311  0.355366  0.728938
0.0498706  0.307846  0.847124
0.0751991  0.256928  0.98098
0.109637  0.204778  1.09741
0.153922  0.153922  1.14705
0.208148  0.107111  1.09215
0.27165  0.0671074  0.940615
0.342986  0.0364419  0.746366
0.42  0.0171547  0.569093
0.5  0.0105722  0.438743
0.58  0.0171547  0.357276
0.657014  0.0364419  0.31819
0.72835  0.0671074  0.31515
0.791852  0.107111  0.337581
0.846078  0.153922  0.367251
0.890363  0.204778  0.384418
0.924801  0.256928  0.378171
0.950129  0.307846  0.350361
0.967569  0.355366  0.310754
0.97863  0.39776  0.269712
0.984922  0.433739  0.234034
0.987982  0.46241  0.206599
0.98914  0.483203  0.187785
0.98941  0.495789  0.176961
0.989428  0.5  0.173443
0.0164873  0.498959  0.48912
0.0165766  0.49065  0.498808
0.0171786  0.474133  0.519578
0.0191153  0.449646  0.554392
0.0235551  0.417623  0.607911
0.0319287  0.378777  0.685856
0.0458099  0.334178  0.792169
0.0667624  0.285312  0.922356
0.0961592  0.234109  1.05412
0.134991  0.182898  1.14394
0.183684  0.134309  1.14341
0.241968  0.0910929  1.03454
0.308797  0.0558975  0.851399
0.38238  0.0310105  0.657336
0.460296  0.0181191  0.500246
0.539704  0.0181191  0.394611
0.61762  0.0310105  0.336138
0.691203  0.0558975  0.318044
0.758032  0.0910929  0.332108
0.816316  0.134309  0.363143
0.865009  0.182898  0.390356
0.903841  0.234109  0.397104
0.933238  0.285312  0.379058
0.95419  0.334178  0.34321
0.968071  0.378777  0.300717
0.976445  0.417623  0.260668
0.980885  0.449646  0.227961
0.982821  0.474133  0.204113
0.983423  0.49065  0.188875
0.983513  0.498959  0.181512
0.0236823  0.5  0.490676
0.0236999  0.495901  0.49555
0.0239629  0.483653  0.510866
0.0250893  0.463417  0.538814
0.0280678  0.435514  0.583264
0.034191  0.400499  0.649607
0.0449557  0.359241  0.743175
0.0619281  0.312993  0.864571
0.0865781  0.263439  1.00115
0.120093  0.212686  1.11915
0.163193  0.163193  1.16882
0.215966  0.117635  1.11234
0.277767  0.0787031  0.957516
0.347191  0.0488591  0.75864
0.422143  0.0300885  0.576876
0.5  0.0236823  0.444116
0.577857  0.0300885  0.363363
0.652809  0.0488591  0.327839
0.722233  0.0787031  0.330083
0.784034  0.117635  0.358077
0.836807  0.163193  0.392266
0.879907  0.212686  0.412094
0.913422  0.263439  0.406501
0.938072  0.312993  0.377699
0.955044  0.359241  0.336074
0.965809  0.400499  0.292614
0.971932  0.435514  0.254606
0.974911  0.463417  0.225227
0.976037  0.483653  0.204992
0.9763  0.495901  0.193314
0.976318  0.5  0.189512
0.0321427  0.498993  0.495159
0.0322291  0.490953  0.505343
0.0328116  0.47497  0.527159
0.0346856  0.451276  0.563665
0.0389817  0.42029  0.619601
0.0470842  0.382702  0.700642
0.0605159  0.339547  0.810417
0.08079  0.292263  0.943785
0.109235  0.242718  1.07768
0.146809  0.193165  1.16813
0.193926  0.146149  1.16674
0.250322  0.104333  1.05548
0.314988  0.0702768  0.868241
0.386188  0.0461957  0.669104
0.461581  0.0337217  0.508015
0.538419  0.0337217  0.401447
0.613812  0.0461957  0.345666
0.685012  0.0702768  0.333022
0.749678  0.104333  0.353687
0.806074  0.146149  0.390763
0.853191  0.193165  0.422194
0.890765  0.242718  0.430829
0.91921  0.292263  0.412522
0.939484  0.339547  0.374865
0.952916  0.382702  0.329742
0.961018  0.42029  0.286889
0.965314  0.451276  0.251661
0.967188  0.47497  0.225829
0.967771  0.490953  0.209249
0.967857  0.498993  0.201216
0.0418415  0.5  0.497647
0.0418585  0.496058  0.502796
0.0421114  0.484276  0.518969
0.0431949  0.464811  0.54843
0.0460598  0.437972  0.59513
0.0519496  0.404292  0.664452
0.0623039  0.364607  0.761485
0.0786293  0.320123  0.886238
0.102339  0.272458  1.02526
0.134577  0.223639  1.14423
0.176033  0.176033  1.19351
0.226794  0.132212  1.13558
0.286239  0.0947648  0.977949
0.353017  0.0660585  0.774627
0.425111  0.0480035  0.58805
0.5  0.0418415  0.452607
0.574889  0.0480035  0.373016
0.646983  0.0660585  0.342383
0.713761  0.0947648  0.351746
0.773206  0.132212  0.38708
0.823967  0.176033  0.427097
0.865423  0.223639  0.450305
0.897661  0.272458  0.445554
0.921371  0.320123  0.41554
0.937696  0.364607  0.371394
0.94805  0.404292  0.324862
0.95394  0.437972  0.283842
0.956805  0.464811  0.25191
0.957889  0.484276  0.229789
0.958141  0.496058  0.216968
0.958158  0.5  0.212785
0.0527575  0.499037  0.50313
0.0528401  0.491351  0.513922
0.0533969  0.476073  0.537
0.0551884  0.453423  0.575492
0.0592952  0.423802  0.63414
0.0670406  0.387871  0.71843
0.0798806  0.346617  0.831461
0.0992613  0.301417  0.967271
0.126453  0.254054  1.10213
0.162371  0.206685  1.1922
0.207413  0.161741  1.18985
0.261324  0.121767  1.07722
0.32314  0.0892114  0.887306
0.391203  0.0661913  0.683981
0.463274  0.0542669  0.519145
0.536726  0.0542669  0.411943
0.608797  0.0661913  0.359772
0.67686  0.0892114  0.354068
0.738676  0.121767  0.382921
0.792587  0.161741  0.427272
0.837629  0.206685  0.463646
0.873547  0.254054  0.474472
0.900739  0.301417  0.455908
0.920119  0.346617  0.416218
0.932959  0.387871  0.368069
0.940705  0.423802  0.321918
0.944812  0.453423  0.283661
0.946603  0.476073  0.255402
0.94716  0.491351  0.237162
0.947243  0.499037  0.228291
0.0648574  0.5  0.506342
0.0648735  0.496256  0.511805
0.0651137  0.485066  0.528938
0.0661427  0.466579  0.560048
0.0688637  0.441088  0.609085
0.0744576  0.4091  0.681269
0.0842918  0.371408  0.781215
0.099797  0.329159  0.908122
0.122316  0.283889  1.04776
0.152934  0.237523  1.16581
0.192308  0.192308  1.21383
0.240519  0.150688  1.15537
0.296978  0.115122  0.997293
0.360401  0.0878578  0.792013
0.428873  0.0707098  0.602191
0.5  0.0648574  0.464841
0.571127  0.0707098  0.387162
0.639599  0.0878578  0.362543
0.703022  0.115122  0.380297
0.759481  0.150688  0.423962
0.807692  0.192308  0.470338
0.847066  0.237523  0.497131
0.877684  0.283889  0.493296
0.900203  0.329159  0.462088
0.915708  0.371408  0.415347
0.925542  0.4091  0.365554
0.931136  0.441088  0.321241
0.933857  0.466579  0.286449
0.934886  0.485066  0.26217
0.935127  0.496256  0.248025
0.935143  0.5  0.243397
0.0781132  0.499092  0.512487
0.0781911  0.491842  0.523905
0.0787164  0.47743  0.54825
0.0804063  0.456064  0.588629
0.0842803  0.428122  0.649633
0.0915866  0.394228  0.73631
0.103699  0.355312  0.850967
0.121981  0.312675  0.986748
0.147631  0.267998  1.11972
0.181513  0.223314  1.20733
0.224  0.180918  1.20407
0.274855  0.14321  1.09266
0.333167  0.1125  0.90402
0.397371  0.0907854  0.7
0.465356  0.079537  0.533542
0.534644  0.079537  0.426871
0.602629  0.0907854  0.379254
0.666833  0.1125  0.381407
0.725145  0.14321  0.419062
0.776  0.180918  0.470822
0.818487  0.223314  0.511987
0.852369  0.267998  0.524893
0.878019  0.312675  0.506169
0.896301  0.355312  0.464675
0.908413  0.394228  0.413706
0.91572  0.428122  0.364343
0.919594  0.456064  0.323023
0.921284  0.47743  0.292237
0.921809  0.491842  0.272228
0.921887  0.499092  0.262454
0.0924858  0.5  0.515879
0.0925009  0.496493  0.521631
0.0927259  0.486015  0.53963
0.0936896  0.468701  0.57214
0.0962378  0.444829  0.622954
0.101477  0.414872  0.696878
0.110686  0.379573  0.797752
0.125207  0.340006  0.923791
0.146296  0.29761  1.06027
0.17497  0.254188  1.17399
0.211844  0.211844  1.21931
0.256994  0.172867  1.16214
0.309868  0.139559  1.0083
0.369264  0.114026  0.806554
0.433389  0.0979667  0.617761
0.5  0.0924858  0.48098
0.566611  0.0979667  0.406498
0.630736  0.114026  0.3886
0.690132  0.139559  0.414933
0.743006  0.172867  0.466512
0.788156  0.211844  0.518477
0.82503  0.254188  0.548235
0.853704  0.29761  0.545203
0.874793  0.340006  0.513176
0.889314  0.379573  0.464445
0.898523  0.414872  0.411959
0.903762  0.444829  0.364757
0.90631  0.468701  0.327325
0.907274  0.486015  0.300985
0.907499  0.496493  0.285543
0.907514  0.5  0.280475
0.107941  0.499156  0.521877
0.108013  0.492418  0.533776
0.108502  0.479026  0.559032
0.110072  0.45917  0.600582
0.113672  0.433204  0.662618
0.120462  0.401706  0.749432
0.131717  0.365542  0.862285
0.148707  0.325919  0.993541
0.172543  0.2844  1.11995
0.20403  0.242876  1.20193
0.243514  0.203477  1.19798
0.290773  0.168435  1.09201
0.344962  0.139897  0.911441
0.404627  0.119717  0.713438
0.467805  0.109264  0.550074
0.532195  0.109264  0.44643
0.595373  0.119717  0.404322
0.655038  0.139897  0.41422
0.709227  0.168435  0.459653
0.756486  0.203477  0.517235
0.79597  0.242876  0.561728
0.827457  0.2844  0.576007
0.851293  0.325919  0.557338
0.868283  0.365542  0.514906
0.879538  0.401706  0.4622
0.886328  0.433204  0.410599
0.889928  0.45917  0.366936
0.891498  0.479026  0.334083
0.891987  0.492418  0.312562
0.892059  0.499156  0.301996
0.124434  0.5  0.524375
0.124448  0.496768  0.530296
0.124655  0.487111  0.548757
0.125543  0.471155  0.581853
0.127892  0.449154  0.632986
0.13272  0.421545  0.706236
0.141208  0.389014  0.804366
0.15459  0.352549  0.924569
0.174026  0.313477  1.05225
0.200452  0.273459  1.15684
0.234435  0.234435  1.19763
0.276045  0.198514  1.14441
0.324774  0.167817  1.0016
0.379514  0.144285  0.81195
0.438611  0.129485  0.631616
0.5  0.124434  0.500098
0.561389  0.129485  0.430834
0.620486  0.144285  0.41966
0.675226  0.167817  0.453064
0.723955  0.198514  0.510081
0.765565  0.234435  0.56507
0.799548  0.273459  0.596084
0.825974  0.313477  0.593489
0.84541  0.352549  0.561466
0.858792  0.389014  0.512228
0.86728  0.421545  0.458645
0.872108  0.449154  0.409915
0.874457  0.471155  0.370848
0.875345  0.487111  0.343097
0.875552  0.496768  0.326715
0.875566  0.5  0.321319
0.141925  0.499229  0.52877
0.141991  0.493076  0.540779
0.142437  0.480844  0.566105
0.143871  0.462709  0.607318
0.147159  0.438994  0.667914
0.15336  0.410226  0.75112
0.16364  0.377197  0.857008
0.179157  0.341009  0.977542
0.200927  0.303089  1.09136
0.229685  0.265164  1.16391
0.265746  0.22918  1.15966
0.308909  0.197175  1.06454
0.358401  0.171111  0.901085
0.412894  0.15268  0.718797
0.470596  0.143133  0.566025
0.529404  0.143133  0.46948
0.587106  0.15268  0.433761
0.641599  0.171111  0.449812
0.691091  0.197175  0.499787
0.734254  0.22918  0.559426
0.770315  0.265164  0.604219
0.799073  0.303089  0.618462
0.820843  0.341009  0.600191
0.83636  0.377197  0.55841
0.84664  0.410226  0.506084
0.852841  0.438994  0.454307
0.856129  0.462709  0.40999
0.857563  0.480844  0.376285
0.858009  0.493076  0.354015
0.858075  0.499229  0.343019
0.160363  0.5  0.528693
0.160376  0.497077  0.534542
0.160563  0.488344  0.552687
0.161367  0.473914  0.584897
0.16349  0.454018  0.633936
0.167857  0.429051  0.702856
0.175532  0.399632  0.793158
0.187634  0.366655  0.901209
0.205211  0.331321  1.01345
0.229109  0.295132  1.10362
0.259841  0.259841  1.13802
0.29747  0.227356  1.0918
0.341538  0.199596  0.967876
0.39104  0.178316  0.800867
0.444484  0.164931  0.638967
0.5  0.160363  0.519511
0.555516  0.164931  0.458175
0.60896  0.178316  0.452775
0.658462  0.199596  0.489665
0.70253  0.227356  0.547295
0.740159  0.259841  0.600838
0.770891  0.295132  0.6303
0.794789  0.331321  0.627518
0.812366  0.366655  0.596752
0.824468  0.399632  0.549359
0.832143  0.429051  0.497342
0.83651  0.454018  0.449503
0.838633  0.473914  0.410706
0.839437  0.488344  0.382864
0.839624  0.497077  0.366305
0.839637  0.5  0.360829
0.179704  0.49931  0.529429
0.179763  0.493806  0.540934
0.180162  0.482865  0.564997
0.181445  0.466644  0.603624
0.184386  0.445431  0.659369
0.189933  0.419698  0.734199
0.199129  0.390153  0.827086
0.213008  0.357783  0.930231
0.232482  0.323864  1.02549
0.258205  0.28994  1.08507
0.290461  0.257753  1.08112
0.32907  0.229126  1.00227
0.37334  0.205811  0.865402
0.422084  0.189325  0.709832
0.473698  0.180785  0.57694
0.526302  0.180785  0.492736
0.577916  0.189325  0.464019
0.62666  0.205811  0.483012
0.67093  0.229126  0.532086
0.709539  0.257753  0.588031
0.741795  0.28994  0.628784
0.767518  0.323864  0.641028
0.786992  0.357783  0.623581
0.800871  0.390153  0.584598
0.810067  0.419698  0.535626
0.815614  0.445431  0.486703
0.818555  0.466644  0.444343
0.819838  0.482865  0.41176
0.820237  0.493806  0.390032
0.820296  0.49931  0.379239
0.199893  0.5  0.524729
0.199904  0.497418  0.530157
0.20007  0.489701  0.546893
0.200779  0.47695  0.576247
0.202656  0.45937  0.620153
0.206514  0.437309  0.680488
0.213296  0.411314  0.757531
0.22399  0.382175  0.847279
0.239521  0.350953  0.938187
0.260637  0.318976  1.0097
0.287792  0.287792  1.03648
0.321042  0.259088  0.999989
0.359981  0.234559  0.901834
0.403722  0.215756  0.767397
0.450946  0.203929  0.634268
0.5  0.199893  0.534474
0.549054  0.203929  0.483949
0.596278  0.215756  0.482396
0.640019  0.234559  0.517462
0.678958  0.259088  0.569161
0.712208  0.287792  0.615584
0.739363  0.318976  0.640075
0.760479  0.350953  0.636337
0.77601  0.382175  0.608286
0.786704  0.411314  0.565575
0.793486  0.437309  0.518456
0.797344  0.45937  0.474671
0.799221  0.47695  0.438746
0.79993  0.489701  0.412691
0.800096  0.497418  0.397072
0.800107  0.5  0.391884
0.220879  0.499399  0.519631
0.22093  0.494602  0.529869
0.221278  0.485068  0.551072
0.222396  0.470932  0.584562
0.224959  0.452446  0.631854
0.229793  0.430021  0.69371
0.237806  0.404274  0.768361
0.249902  0.376065  0.848992
0.266872  0.346507  0.921675
0.289288  0.316944  0.966345
0.317398  0.288895  0.963403
0.351044  0.263947  0.904677
0.389623  0.243629  0.801473
0.4321  0.229263  0.68177
0.477079  0.221821  0.577317
0.522921  0.221821  0.510492
0.5679  0.229263  0.488851
0.610377  0.243629  0.506527
0.648956  0.263947  0.548161
0.682602  0.288895  0.593952
0.710712  0.316944  0.626041
0.733128  0.346507  0.634245
0.750098  0.376065  0.61804
0.762194  0.404274  0.584072
0.770207  0.430021  0.541625
0.775041  0.452446  0.498932
0.777604  0.470932  0.461562
0.778722  0.485068  0.432493
0.77907  0.494602  0.412924
0.779121  0.499399  0.403142
0.242604  0.5  0.508607
0.242613  0.497785  0.513235
0.242755  0.491166  0.527406
0.243364  0.480231  0.551915
0.244973  0.465152  0.587835
0.248282  0.446231  0.635953
0.254099  0.423935  0.695651
0.263271  0.398944  0.763167
0.276592  0.372166  0.829722
0.294703  0.344739  0.881003
0.317993  0.317993  0.900139
0.346511  0.293375  0.874942
0.379908  0.272336  0.806153
0.417424  0.256209  0.71023
0.457927  0.246065  0.613094
0.5  0.242604  0.538841
0.542073  0.246065  0.501155
0.582576  0.256209  0.500975
0.620092  0.272336  0.528619
0.653489  0.293375  0.56799
0.682007  0.317993  0.602083
0.705297  0.344739  0.618605
0.723408  0.372166  0.613254
0.736729  0.398944  0.589183
0.745901  0.423935  0.553686
0.751718  0.446231  0.514574
0.755027  0.465152  0.477937
0.756636  0.480231  0.447551
0.757245  0.491166  0.425282
0.757387  0.497785  0.411827
0.757396  0.5  0.407338
0.265012  0.499494  0.496352
0.265056  0.495456  0.504628
0.265348  0.487429  0.521575
0.266289  0.475528  0.547855
0.268447  0.459965  0.584074
0.272517  0.441086  0.630105
0.279263  0.41941  0.683976
0.289446  0.395661  0.740472
0.303733  0.370776  0.790187
0.322605  0.345888  0.82044
0.34627  0.322274  0.819244
0.374596  0.301271  0.78154
0.407075  0.284166  0.71396
0.442836  0.27207  0.633855
0.480704  0.265805  0.562305
0.519296  0.265805  0.515647
0.557164  0.27207  0.500413
0.592925  0.284166  0.512859
0.625404  0.301271  0.541667
0.65373  0.322274  0.572402
0.677395  0.345888  0.592559
0.696267  0.370776  0.595365
0.710554  0.395661  0.58072
0.720737  0.41941  0.55335
0.727483  0.441086  0.519801
0.731553  0.459965  0.486009
0.733711  0.475528  0.456179
0.734652  0.487429  0.432736
0.734944  0.495456  0.416811
0.734988  0.499494  0.408802
0.288043  0.5  0.478687
0.288051  0.498176  0.482234
0.288168  0.492726  0.493006
0.288669  0.483721  0.511347
0.289994  0.471304  0.53763
0.292719  0.455723  0.571871
0.297509  0.437363  0.613055
0.305062  0.416784  0.658209
0.316031  0.394733  0.701545
0.330945  0.372148  0.734451
0.350124  0.350124  0.747288
0.373607  0.329851  0.733235
0.401108  0.312527  0.692598
0.432002  0.299246  0.63454
0.465354  0.290894  0.574271
0.5  0.288043  0.526992
0.534646  0.290894  0.502233
0.567998  0.299246  0.501263
